# SI neutrino floor for Ar 
#  Column 0 = Mass [GeV] 
#  Column 1 = Cross section [cm^2]
1.000000000000000056e-01 2.736050255670636852e-45
1.039255682936712638e-01 2.996573739408605688e-45
1.080052374516252828e-01 3.277416127771523526e-45
1.122450568085306410e-01 3.587101851389772998e-45
1.166513131698196093e-01 3.921633797804161628e-45
1.212305401337652189e-01 4.283651714438880919e-45
1.259895277795027302e-01 4.677360632074620968e-45
1.309353327353610374e-01 5.099802699792194162e-45
1.360752886424333452e-01 5.552834226778914280e-45
1.414170170289023587e-01 6.039310423172863365e-45
1.469684386112446450e-01 6.560677743095932492e-45
1.527377850390713721e-01 7.112873654938558970e-45
1.587336111010209105e-01 7.702681032052571479e-45
1.649648074098020167e-01 8.319977976869046366e-45
1.714406135851970769e-01 8.972034494886715318e-45
1.781706319545730832e-01 9.653065809542785226e-45
1.851648417912155065e-01 1.035511172454709073e-44
1.924336141115980114e-01 1.108039503583031197e-44
1.999877270535286022e-01 1.182372961734701516e-44
2.078383818579757347e-01 1.257837672340875063e-44
2.159972194782718291e-01 1.334673061535878515e-44
2.244763378413223709e-01 1.410577058428275197e-44
2.332883097864157096e-01 1.485513402756038598e-44
2.424462017082328336e-01 1.560154833413399148e-44
2.519635929317015077e-01 1.633330702804905919e-44
2.618545958474232660e-01 1.705269667095234780e-44
2.721338768375307082e-01 1.775487251230372680e-44
2.828166780230032540e-01 1.846261055572642065e-44
2.939188398646885858e-01 1.918166898154642374e-44
3.054568246515431684e-01 1.990315550723985739e-44
3.174477409109192627e-01 2.064683754146241238e-44
3.299093687770939809e-01 2.143104883584419186e-44
3.428601863556585694e-01 2.222584150246570874e-44
3.563193971228584833e-01 2.305733941614279518e-44
3.703069584005140302e-01 2.394028936129021902e-44
3.848436109487430312e-01 2.485027797359868073e-44
3.999509097203664543e-01 2.577557345317325322e-44
4.156512558225988752e-01 2.671770016306919638e-44
4.319679297334173551e-01 2.765744476897028070e-44
4.489251258218605600e-01 2.856049487504284488e-44
4.665479882234472853e-01 2.936135641129900725e-44
4.848626481239080577e-01 3.001514352896271943e-44
5.038962625065149803e-01 3.043586486370564202e-44
5.236770544204653044e-01 3.056604867581255586e-44
5.442343548300266898e-01 3.033256709908115418e-44
5.655986461065004578e-01 2.974854606763455272e-44
5.878016072274911963e-01 2.880777636680748723e-44
6.108761607505036606e-01 2.759251855222595876e-44
6.348565216305216419e-01 2.614100086671861195e-44
6.597782479539537892e-01 2.454283791358358782e-44
6.856782936641739878e-01 2.285541962689621441e-44
7.125950633568408632e-01 2.111093453703946613e-44
7.405684692262436419e-01 1.933268628629869084e-44
7.696399902471157128e-01 1.756313141101896755e-44
7.998527336796710241e-01 1.579844693924780082e-44
8.312514989890629202e-01 1.406096596289952953e-44
8.638828442740447144e-01 1.237375565610588134e-44
8.977951553033320931e-01 1.077833342198469754e-44
9.330387172620362435e-01 9.300245742348863571e-45
9.696657893145520513e-01 7.956730408728038179e-45
1.007730682094461150e+00 6.767698724353322886e-45
1.047289838236358461e+00 5.737716370442718360e-45
1.088401916069005937e+00 4.862864559637216709e-45
1.131127876593921444e+00 4.129748004241862001e-45
1.175531073878369304e+00 3.524519952138661674e-45
1.221677348996791812e+00 3.033704727434497765e-45
1.269635127659973550e+00 2.636604265044894995e-45
1.319475521676706009e+00 2.319368278355260391e-45
1.371272434398400186e+00 2.068429604004186702e-45
1.425102670302997865e+00 1.870822057976537818e-45
1.481046048880674704e+00 1.718297740273447092e-45
1.539185522990205390e+00 1.601726288455527702e-45
1.599607301861486919e+00 1.513867530542785837e-45
1.662400978926611872e+00 1.451140031223426149e-45
1.727659664669035644e+00 1.407951903683481495e-45
1.795480124687831358e+00 1.381210844931992800e-45
1.865962923181746058e+00 1.367809090306814901e-45
1.939212572065829976e+00 1.365625090223428291e-45
2.015337685941732904e+00 1.373009881156689942e-45
2.094451143151469630e+00 1.387866505016395530e-45
2.176670253153459189e+00 1.410019283024616236e-45
2.262116930469025178e+00 1.437679234245742059e-45
2.350917875457286588e+00 1.469846453254230169e-45
2.443204762186487855e+00 1.505769152069469227e-45
2.539114433680346838e+00 1.546331800456584125e-45
2.638789104828933141e+00 1.589525713653730198e-45
2.742376573264949435e+00 1.635890506163228137e-45
2.850030438518106557e+00 1.683475991403107318e-45
2.961910329772553307e+00 1.734052946220586305e-45
3.078182142565078383e+00 1.785966267699523457e-45
3.199018284775064114e+00 1.839064672549920433e-45
3.324597932270939804e+00 1.892412874697064841e-45
3.455107294592218103e+00 1.946780349198453802e-45
3.590739891061053068e+00 2.001457596960910551e-45
3.731696837732751959e+00 2.054920550500581440e-45
3.878187145610721753e+00 2.107096154599075250e-45
4.030428030568050879e+00 2.158394416971960019e-45
4.188645235435270564e+00 2.206718700907872908e-45
4.353073364731890216e+00 2.252246345565593628e-45
4.523956232538053790e+00 2.294522846405111556e-45
4.701547224022132099e+00 2.330425663749850467e-45
4.886109671160325796e+00 2.361745823632020376e-45
5.077917243205400943e+00 2.386216776152632466e-45
5.277254352483537581e+00 2.401458114340617790e-45
5.484416576121017961e+00 2.406271044066298924e-45
5.699711094326075589e+00 2.399852919898133877e-45
5.923457145875802965e+00 2.379563009674529381e-45
6.155986501483507567e+00 2.339813295218731289e-45
6.397643955748426592e+00 2.279184057909831894e-45
6.648787838417263174e+00 2.191988852909390826e-45
6.909790545715641663e+00 2.069161443223740310e-45
7.181039092537348623e+00 1.902190388557167788e-45
7.462935686310133043e+00 1.691113449069931013e-45
7.755898323389001980e+00 1.443920996905025670e-45
8.060361408861341559e+00 1.165125588909356422e-45
8.376776400682915735e+00 8.642525606694815368e-46
8.705612479099860579e+00 5.401405813318126701e-46
9.047357242349292505e+00 4.160252100893824683e-47
9.402517429670131932e+00 3.037272309547870904e-47
9.771619672696177261e+00 2.260683931742807967e-47
1.015521127634568010e+01 1.707087334866972862e-47
1.055386103036522982e+01 1.306052860914418926e-47
1.096816005273137939e+01 1.012073229567580446e-47
1.139872266616051455e+01 7.935775946365611199e-48
1.184618730902683659e+01 6.295624274898296404e-48
1.231121748203889510e+01 5.047893958580087943e-48
1.279450273207873323e+01 4.089601839673262102e-48
1.329675967466211262e+01 3.347378902597731105e-48
1.381873305653632222e+01 2.767812961679810014e-48
1.436119685999078754e+01 2.313525492202481414e-48
1.492495545051828998e+01 1.953713774032069321e-48
1.551084476952840596e+01 1.665813052198527447e-48
1.611973357388157169e+01 1.434197540588924109e-48
1.675252472408215354e+01 1.247413594799630942e-48
1.741015652304015404e+01 1.096622748201129198e-48
1.809360410738716496e+01 9.744478746280071559e-49
1.880388089340914703e+01 8.747504862454486709e-49
1.954204007974053425e+01 7.935295909191117790e-49
2.030917620904734733e+01 7.272611252030828210e-49
2.110642679101554720e+01 6.736305838557548803e-49
2.193497398905057949e+01 6.307302808304706797e-49
2.279604637318979599e+01 5.960692561223085257e-49
2.369092074182632146e+01 5.686834711064811460e-49
2.462092401494625449e+01 5.469239111933000925e-49
2.558743520168586372e+01 5.300421327830132465e-49
2.659188744512693603e+01 5.172889604621489422e-49
2.763577014736157267e+01 5.080832856543299769e-49
2.872063117797828014e+01 5.017255282882086414e-49
2.984807916924324189e+01 4.978610907055687719e-49
3.101978590138096692e+01 4.962155025962667130e-49
3.223748878149029906e+01 4.959024902661825316e-49
3.350299341977229517e+01 4.974410367419538136e-49
3.481817630688966148e+01 5.003244808970920271e-49
3.618498759642746876e+01 5.042872003009241161e-49
3.760545399658171561e+01 5.095197074806736262e-49
3.908168177536263954e+01 5.158860722540871405e-49
4.061585988376979373e+01 5.230967394867944852e-49
4.221026320156898493e+01 5.312440465248026824e-49
4.386725591048498529e+01 5.401713202686065750e-49
4.558929499981059053e+01 5.498934949713110317e-49
4.737893390963144213e+01 5.604463707362735759e-49
4.923882631706736390e+01 5.718427860624859041e-49
5.117173007114605099e+01 5.841631336217672334e-49
5.318051128214197121e+01 5.970481831825392758e-49
5.526814857144603366e+01 6.106873903317329253e-49
5.743773748826581027e+01 6.252477538817617468e-49
5.969249509970733669e+01 6.404289358097327537e-49
6.203576476104268522e+01 6.564227241287239138e-49
6.447102107323868836e+01 6.730876617395705736e-49
6.700187503509583564e+01 6.907518183190875188e-49
6.963207939763883303e+01 7.090834420789922881e-49
7.236553422869657481e+01 7.281557743979155481e-49
7.520629269592407695e+01 7.481529260629469407e-49
7.815856707684091020e+01 7.691911277862387361e-49
8.122673500479712061e+01 7.909374897314982637e-49
8.441534596012985503e+01 8.135662162987865038e-49
8.772912801613355782e+01 8.370971913198163050e-49
9.117299484984921776e+01 8.617172137377919910e-49
9.475205302806537588e+01 8.871958163001061766e-49
9.847160957933773773e+01 9.137252568012485162e-49
1.023371798632519187e+02 9.412242687841134784e-49
1.063544957486011242e+02 9.698158343764290737e-49
1.105295141126021008e+02 9.996311361641518925e-49
1.148684256737553540e+02 1.030805546730221258e-48
1.193776641714435698e+02 1.062888798874432072e-48
1.240639159058831780e+02 1.096095902068219021e-48
1.289341296525714426e+02 1.130884059867578937e-48
1.339955269659338342e+02 1.166985948706520241e-48
1.392556128874462047e+02 1.204320709271748259e-48
1.447221870741134353e+02 1.243515292374070207e-48
1.504033553638023761e+02 1.283681902339290888e-48
1.563075417945815673e+02 1.325709371499807484e-48
1.624435010958865462e+02 1.369235315466462633e-48
1.688203316700362677e+02 1.414524425155056686e-48
1.754474890833459710e+02 1.461223477496978874e-48
1.823348000868440408e+02 1.510231118235559611e-48
1.894924771873821783e+02 1.560897237148417011e-48
1.969311337907421660e+02 1.613760016600129678e-48
2.046617999391989713e+02 1.668285851945089754e-48
2.126959386668689831e+02 1.725315964610837348e-48
2.210454629971021632e+02 1.784369225770483432e-48
2.297227536071151235e+02 1.845340304987391198e-48
2.387406771860646870e+02 1.909396411049140191e-48
2.481126055137767707e+02 1.975344845714375193e-48
2.578524352884273867e+02 2.043785517962423208e-48
2.679746087325689246e+02 2.115212080650573731e-48
2.784941350080644042e+02 2.189629636437723782e-48
2.894266124716749005e+02 2.266422136577203363e-48
3.007882518043098798e+02 2.346543572828911665e-48
3.125959000482278043e+02 2.430256160641381644e-48
3.248670655878374873e+02 2.516787218264380193e-48
3.376199441111336910e+02 2.606382863790135998e-48
3.508734455902711034e+02 2.699487142847123953e-48
3.646472223212745121e+02 2.796854895843804891e-48
3.789616980644715909e+02 2.897690542872527754e-48
3.938380983288489006e+02 3.002478123012901438e-48
4.092984818452438276e+02 3.111275208781948456e-48
4.253657732750387481e+02 3.224138367199353357e-48
4.420637972028529816e+02 3.341107009920864802e-48
4.594173134636476448e+02 3.463272654192956390e-48
4.774520538566126220e+02 3.590431515669777451e-48
4.961947603002902838e+02 3.722585136892332630e-48
5.156732244854963483e+02 3.859685235199481603e-48
5.359163290848514407e+02 4.001813184037015964e-48
5.569540905800130304e+02 4.149474554721364835e-48
5.788177037701274230e+02 4.302912521196904531e-48
6.015395880274832052e+02 4.462278769818526305e-48
6.251534353689711452e+02 4.627993385698474587e-48
6.496942604146117901e+02 4.800480819927363200e-48
6.751984523072501361e+02 4.979880138644563723e-48
7.017038286703822223e+02 5.166499111789782949e-48
7.292496916841444090e+02 5.360238113579077211e-48
7.578768863625922450e+02 5.561481126849565242e-48
7.876278611187054821e+02 5.770605933572370233e-48
8.185467307069020535e+02 5.987923350749139761e-48
8.506793416364153018e+02 6.213765884066922614e-48
8.840733401525062618e+02 6.448494400186399870e-48
9.187782428863330324e+02 6.692371115423554528e-48
9.548455102782293125e+02 6.945760153380464854e-48
9.923286228832545248e+02 7.209096787685440942e-48
1.031283160672184749e+03 7.482772535097889887e-48
1.071766885445503476e+03 7.767194302017019731e-48
1.113839826482618264e+03 8.062785240908400999e-48
1.157564369553303550e+03 8.369984465061612356e-48
1.203005349423324333e+03 8.689248652534751279e-48
1.250230145991456084e+03 9.021052481772093589e-48
1.299308784200414493e+03 9.365889008336810009e-48
1.350314037869872209e+03 9.724270436685364695e-48
1.403321537605484764e+03 1.009672959963439922e-47
1.458409882943986304e+03 1.048372774280852344e-47
1.515660758900601195e+03 1.088583838441404385e-47
1.575159057091621207e+03 1.130371778230146436e-47
1.636993001611701857e+03 1.173799275972107430e-47
1.701254279852589207e+03 1.218933817061637158e-47
1.768038178457205049e+03 1.265836188260909306e-47
1.837443724610724757e+03 1.314576852870916220e-47
1.909573832878096709e+03 1.365231120417709007e-47
1.984535457805803162e+03 1.417872370286971152e-47
2.062439752514092561e+03 1.472547303471727127e-47
2.143402233514854743e+03 1.529342669868401400e-47
2.227542951999556408e+03 1.588360445968784897e-47
2.314986671851160736e+03 1.649685215834424906e-47
2.405863054644066779e+03 1.713439022323734490e-47
2.500306851906321299e+03 1.779712509648949935e-47
2.598458104929247384e+03 1.848557472745781871e-47
2.700462352420682237e+03 1.920098863779483683e-47
2.806470846309838635e+03 1.994549909645721946e-47
2.916640776023700710e+03 2.071972762842522246e-47
3.031135501567576284e+03 2.152439042573530578e-47
3.150124795755327796e+03 2.236068443574963436e-47
3.273785095948577236e+03 2.322985080323937600e-47
3.402299765678064432e+03 2.413218177629389902e-47
3.535859366535175923e+03 2.506965384941086596e-47
3.674661940736687939e+03 2.604446967230111595e-47
3.818913304781854094e+03 2.705757463513644924e-47
3.968827354637157896e+03 2.811042550787762630e-47
4.124626382901347824e+03 2.920458384967569993e-47
4.286541408420925109e+03 3.034162128381501645e-47
4.454812518844988517e+03 3.152339817856624388e-47
4.629689226627267999e+03 3.275194187825359537e-47
4.811430839003254732e+03 3.402884864154953793e-47
5.000306842491089810e+03 3.535376658242959370e-47
5.196597302486196895e+03 3.673220537847842720e-47
5.400593278542373810e+03 3.816509137672087653e-47
5.612597255954965476e+03 3.965569740267381246e-47
5.832923594286199659e+03 4.120485550951398273e-47
6.061898993497572519e+03 4.281472320734813511e-47
6.299862978380693676e+03 4.448759908683148689e-47
6.547168402004729614e+03 4.622538028131062572e-47
6.804181968927094204e+03 4.802945435627673747e-47
7.071284778942996127e+03 4.990440100722067637e-47
7.348872892180387680e+03 5.185285370993517953e-47
7.637357916378011396e+03 5.387592926609784527e-47
7.937167617217543011e+03 5.597645222886406952e-47
8.248746552614580651e+03 5.815914491977256508e-47
8.572556731909324299e+03 6.042876517540475915e-47
8.909078300934124854e+03 6.278755420697162020e-47
9.258810253973944782e+03 6.524312232488837216e-47
9.622271173675135287e+03 6.779845320080310369e-47
1.000000000000000000e+04 7.045620164191850265e-47
