# SDn neutrino floor for Ge 
#  Column 0 = Mass [GeV] 
#  Column 1 = Cross section [cm^2]
1.000000000000000056e-01 9.743775112967099461e-38
1.059560179277615893e-01 1.099367359467971341e-37
1.122667773510813566e-01 1.241557476818388453e-37
1.189534067370319470e-01 1.402679338424895167e-37
1.260382929679727537e-01 1.584143313790082779e-37
1.335451562929898806e-01 1.786819967889278645e-37
1.414991297434576023e-01 2.012820871562896081e-37
1.499268432786045602e-01 2.261893622958003984e-37
1.588565129428052836e-01 2.534939640609220076e-37
1.683180353330956669e-01 2.830936414708841149e-37
1.783430876931909326e-01 3.146954507700367333e-37
1.889652339691209604e-01 3.483565170656611745e-37
2.002200371815584523e-01 3.834483506726126834e-37
2.121451784910629856e-01 4.194991392676290394e-37
2.247805833548725263e-01 4.558238537219867692e-37
2.381685551976158166e-01 4.915847793875281729e-37
2.523539170434765944e-01 5.269602942904594792e-37
2.673841615839946395e-01 5.614680838445671130e-37
2.833096101839324144e-01 5.958432440642283355e-37
3.001835813575589040e-01 6.309653087851790767e-37
3.180625692794120107e-01 6.670132907199710918e-37
3.370064329271929005e-01 7.052381717977717707e-37
3.570785964900463627e-01 7.460767332705496586e-37
3.783462617131930217e-01 7.894686501044146933e-37
4.008806328898465443e-01 8.351410211099531465e-37
4.247571552536899553e-01 8.814864468821449874e-37
4.500557675700498916e-01 9.265964579492443096e-37
4.768611697714470465e-01 9.652028355047259679e-37
5.052631065335680960e-01 9.906022852064933972e-37
5.353566677410726005e-01 9.957756091239118873e-37
5.672426068491979168e-01 9.750712668903497350e-37
6.010276782070382851e-01 9.294047174326116853e-37
6.368249944718588074e-01 8.634615724158278078e-37
6.747544053110694495e-01 7.832489495845566019e-37
7.149428986597579083e-01 6.951112567120661738e-37
7.575250258771913936e-01 6.022321871608704342e-37
8.026433522257175879e-01 5.088117276144153490e-37
8.504489341802679014e-01 4.186579606575948772e-37
9.011018251665020573e-01 3.365700600639926736e-37
9.547716114208059102e-01 2.657178395491155735e-37
1.011637979766207618e+00 2.075808927639395817e-37
1.071891319205128035e+00 1.620929869747588620e-37
1.135733358343105737e+00 1.276143864554143555e-37
1.203377840777589913e+00 1.021603282379395571e-37
1.275051240713013456e+00 8.375660975682067225e-38
1.350993521198027292e+00 7.062628247240161554e-38
1.431458937523479191e+00 6.144750497137425540e-38
1.516716888470923230e+00 5.517532107846838120e-38
1.607052818261639260e+00 5.106393539286956442e-38
1.702769172225900407e+00 4.861329514727212672e-38
1.804186409392072754e+00 4.738630548323278125e-38
1.911644075385702690e+00 4.712063204415305099e-38
2.025501939230667681e+00 4.760414446822922936e-38
2.146141197858404848e+00 4.865233015408464640e-38
2.273965752357928860e+00 5.019039923165620731e-38
2.409403560239525621e+00 5.209724227047312018e-38
2.552908068239517991e+00 5.432489018993415854e-38
2.704959730463135870e+00 5.682189699170844992e-38
2.866067616948251739e+00 5.953007206171192763e-38
3.036771118035459072e+00 6.243953372607163831e-38
3.217641750250737065e+00 6.548129156254378607e-38
3.409285069746812891e+00 6.860325081728761016e-38
3.612342699709432114e+00 7.180757932506910729e-38
3.827494478516312970e+00 7.498390756274431564e-38
4.055460735840830111e+00 7.809074880477042215e-38
4.297004704320841917e+00 8.106063233623830423e-38
4.552935074866949705e+00 8.376213439104609536e-38
4.824108704165371186e+00 8.610765069056395208e-38
5.111433483440167791e+00 8.792558177645293661e-38
5.415871378079473608e+00 8.898666278460965188e-38
5.738441648302395670e+00 8.902580657538600209e-38
6.080224261649424200e+00 8.754011644453331101e-38
6.442363508721373755e+00 8.369552935966731338e-38
6.826071834272389616e+00 7.615779800339995197e-38
7.232633896483537050e+00 6.434902217983953849e-38
7.663410868007458632e+00 4.859741321122678201e-38
8.119844993184013759e+00 3.014892808551635138e-38
8.603464416684504457e+00 1.523917748593199560e-39
9.115888299750823265e+00 9.441699181374763006e-40
9.658832241158703980e+00 6.099095211956718099e-40
1.023411402105453760e+01 4.079483485138059979e-40
1.084365968689610860e+01 2.816691067923720817e-40
1.148951000187309823e+01 2.003078417792099963e-40
1.217382727739662052e+01 1.465810221039041539e-40
1.289890261253309411e+01 1.103387380235814649e-40
1.366716356462007376e+01 8.535463373052777279e-41
1.448118227674534531e+01 6.784231660623318816e-41
1.534368408930013139e+01 5.545970873118764093e-41
1.625755666443794922e+01 4.659684396601130327e-41
1.722585965398787522e+01 4.021954105551502474e-41
1.825183494319044186e+01 3.565627176837090623e-41
1.933891750455232028e+01 3.237852210798735833e-41
2.049074689815848060e+01 3.004829851920737827e-41
2.171117945694505380e+01 2.842765670091490081e-41
2.300430119772919113e+01 2.733610635675200404e-41
2.437444150122221842e+01 2.664170485600440204e-41
2.582618760682677461e+01 2.626618273729573771e-41
2.736439997074672092e+01 2.614197012940266755e-41
2.899422853882878215e+01 2.622429624310530967e-41
3.072112998861759081e+01 2.647925363669332436e-41
3.255088599835060137e+01 2.688550542165642377e-41
3.448962260405759395e+01 2.742648330348663156e-41
3.654383070957258184e+01 2.808847095751045058e-41
3.872038781812557318e+01 2.886345613921384576e-41
4.102658105827194390e+01 2.974880292149674107e-41
4.347013158125026422e+01 3.073522135582276733e-41
4.605922041145108636e+01 3.182372418413093284e-41
4.880251583654433745e+01 3.301360883451467471e-41
5.170920242896760755e+01 3.430217412076513383e-41
5.478901179593945159e+01 3.569661358529579514e-41
5.805225516094901650e+01 3.719320974349609283e-41
6.150985788580504021e+01 3.879592680276215937e-41
6.517339604882427295e+01 4.050542925565972616e-41
6.905513520162330110e+01 4.232485055875267672e-41
7.316807143427199378e+01 4.425541780611423932e-41
7.752597488629464806e+01 4.631692920446565145e-41
8.214343584919430441e+01 4.850431140166225071e-41
8.703591361485165123e+01 5.081149378530629355e-41
9.221978823334330855e+01 5.324965470375339055e-41
9.771241535346501905e+01 5.584476657294540647e-41
1.035321843295662632e+02 5.858190884028026459e-41
1.096985797892384085e+02 6.146455527368247359e-41
1.162322468679852960e+02 6.452646851496551694e-41
1.231550603292826196e+02 6.776294933673706134e-41
1.304901978014403028e+02 7.115720163636196457e-41
1.382622173764656281e+02 7.477294737001315586e-41
1.464971398307286279e+02 7.858651773232248518e-41
1.552225357427047925e+02 8.259386821901221838e-41
1.644676177994664386e+02 8.686259416197778380e-41
1.742633386009650849e+02 9.135982396101267737e-41
1.846424942895544348e+02 9.610266556981092674e-41
1.956398343517064689e+02 1.011530721781152748e-40
2.072921779595371845e+02 1.064630954565153322e-40
2.196385372416546886e+02 1.120944329009147708e-40
2.327202478960409735e+02 1.180549618882243974e-40
2.465811075822603868e+02 1.243306265889779902e-40
2.612675225563328922e+02 1.310306235136185612e-40
2.768286630392066741e+02 1.380729453652344642e-40
2.933166278390045250e+02 1.455458250976642878e-40
3.107866187782013867e+02 1.534547524301649572e-40
3.292971255097151584e+02 1.618339604142928463e-40
3.489101213406773923e+02 1.707342214332439933e-40
3.696912707195028247e+02 1.800902601620670583e-40
3.917101490809260440e+02 1.900802132107214232e-40
4.150404757850476472e+02 2.005747270827500767e-40
4.397603609302720997e+02 2.117740263443556123e-40
4.659525668664682030e+02 2.235586645346184699e-40
4.937047852839003781e+02 2.361442200710665125e-40
5.231099308056263908e+02 2.493647850557883995e-40
5.542664520663107623e+02 2.634739593845827908e-40
5.872786613189482523e+02 2.783340363800242097e-40
6.222570836730230894e+02 2.941351445384676490e-40
6.593188271333548300e+02 3.108407100761578676e-40
6.985879746785249154e+02 3.285700832461799616e-40
7.401959996915644524e+02 3.473195002395658535e-40
7.842822061337682271e+02 3.672226866511947350e-40
8.309941949353395785e+02 3.882581642879885356e-40
8.804883581643464368e+02 4.106086560900144052e-40
9.329304026284686415e+02 4.342035266782577416e-40
9.884959046625585870e+02 4.593137986286278518e-40
1.047370897959450758e+03 4.857687404259434321e-40
1.109752496412072105e+03 5.140089253515650678e-40
1.175849554052158055e+03 5.436412578076308574e-40
1.245883364295008050e+03 5.753936647935798635e-40
1.320088400831419449e+03 6.086639521663891207e-40
1.398713102647238657e+03 6.442785469860264712e-40
1.482020705798860035e+03 6.817461932180980064e-40
1.570290124729377567e+03 7.216022893711255874e-40
1.663816886076130686e+03 7.637506051202338967e-40
1.762914118095947970e+03 8.084651039748054171e-40
1.867913599020784659e+03 8.558133470537083964e-40
1.979166867853557278e+03 9.059043941016909768e-40
2.097046401323234932e+03 9.591360317408361244e-40
2.221946860939523958e+03 1.015290435749496585e-39
2.354286414322420114e+03 1.075074401963554689e-39
2.494508135230316384e+03 1.137976404524108540e-39
2.643081486974108429e+03 1.205310386817264026e-39
2.800503894183631019e+03 1.275971177602289971e-39
2.967302408188872505e+03 1.351397626566225342e-39
3.144035471591500027e+03 1.431033841444929093e-39
3.331294787934677061e+03 1.515492192004761851e-39
3.529707302730650099e+03 1.605033161653318853e-39
3.739937302478801485e+03 1.699619324578168797e-39
3.962688638701478339e+03 1.800204921748216713e-39
4.198707084443914027e+03 1.906137007567650215e-39
4.448782831127585268e+03 2.019389042095768532e-39
4.713753134116728688e+03 2.138271648557440111e-39
4.994505115855139593e+03 2.265274845290809949e-39
5.291978735958447032e+03 2.399299768786718663e-39
5.607169938205458493e+03 2.541450309099571339e-39
5.941133984965039417e+03 2.692175814333821459e-39
6.294988990221887434e+03 2.851354363780950074e-39
6.669919663030128504e+03 3.020661608534946711e-39
7.067181273927491020e+03 3.198848439901974381e-39
7.488103857590030202e+03 3.389562003949986716e-39
7.934096665797492278e+03 3.589854826398163418e-39
8.406652885618334039e+03 3.803378718497315003e-39
8.907354638610438997e+03 4.029118428832474934e-39
9.437878277775391325e+03 4.268146048605730292e-39
1.000000000000000000e+04 4.522023089349315555e-39
