# SDp neutrino floor for Ge 
#  Column 0 = Mass [GeV] 
#  Column 1 = Cross section [cm^2]
1.000000000000000056e-01 9.743961823521975940e-38
1.059560179277615893e-01 1.099571696954026867e-37
1.122667773510813566e-01 1.241307485345213963e-37
1.189534067370319470e-01 1.402896416424950968e-37
1.260382929679727537e-01 1.583650292232224660e-37
1.335451562929898806e-01 1.787089498654071485e-37
1.414991297434576023e-01 2.012462855150456487e-37
1.499268432786045602e-01 2.261882513794892018e-37
1.588565129428052836e-01 2.533732781616736773e-37
1.683180353330956669e-01 2.831355501883267352e-37
1.783430876931909326e-01 3.148236556877839815e-37
1.889652339691209604e-01 3.482396548451282454e-37
2.002200371815584523e-01 3.834728199914055200e-37
2.121451784910629856e-01 4.195952253845714379e-37
2.247805833548725263e-01 4.557100058004222990e-37
2.381685551976158166e-01 4.917761331511261413e-37
2.523539170434765944e-01 5.268554615826302123e-37
2.673841615839946395e-01 5.611532076562057268e-37
2.833096101839324144e-01 5.958392594631627625e-37
3.001835813575589040e-01 6.308614437175683844e-37
3.180625692794120107e-01 6.671246873036035786e-37
3.370064329271929005e-01 7.055130107346551368e-37
3.570785964900463627e-01 7.461398942307228397e-37
3.783462617131930217e-01 7.894129178978774801e-37
4.008806328898465443e-01 8.350266462831235402e-37
4.247571552536899553e-01 8.812003241808951022e-37
4.500557675700498916e-01 9.268925397331796613e-37
4.768611697714470465e-01 9.651637907244735963e-37
5.052631065335680960e-01 9.905359513658654223e-37
5.353566677410726005e-01 9.955645098290371163e-37
5.672426068491979168e-01 9.749815595892799391e-37
6.010276782070382851e-01 9.296508893013291019e-37
6.368249944718588074e-01 8.632272563306051987e-37
6.747544053110694495e-01 7.831651875655523212e-37
7.149428986597579083e-01 6.950924923184562843e-37
7.575250258771913936e-01 6.020868157740294516e-37
8.026433522257175879e-01 5.087292861932056175e-37
8.504489341802679014e-01 4.186261069453441556e-37
9.011018251665020573e-01 3.365087249743905554e-37
9.547716114208059102e-01 2.657511809901537549e-37
1.011637979766207618e+00 2.076113114682759276e-37
1.071891319205128035e+00 1.620853843954565920e-37
1.135733358343105737e+00 1.276206040451468830e-37
1.203377840777589913e+00 1.021349721322499755e-37
1.275051240713013456e+00 8.375745216428878832e-38
1.350993521198027292e+00 7.062584661725874537e-38
1.431458937523479191e+00 6.143967074894002604e-38
1.516716888470923230e+00 5.516314249291260027e-38
1.607052818261639260e+00 5.107479137063490260e-38
1.702769172225900407e+00 4.861871100838638645e-38
1.804186409392072754e+00 4.739822558767415177e-38
1.911644075385702690e+00 4.711234969109280495e-38
2.025501939230667681e+00 4.758883624527574215e-38
2.146141197858404848e+00 4.865433899065295678e-38
2.273965752357928860e+00 5.018444881522382043e-38
2.409403560239525621e+00 5.209578141633409994e-38
2.552908068239517991e+00 5.432489983152060756e-38
2.704959730463135870e+00 5.681827225633260316e-38
2.866067616948251739e+00 5.951794891499438045e-38
3.036771118035459072e+00 6.242483756739817244e-38
3.217641750250737065e+00 6.546631083407289711e-38
3.409285069746812891e+00 6.858752667627537293e-38
3.612342699709432114e+00 7.179150664776749580e-38
3.827494478516312970e+00 7.496634823195053104e-38
4.055460735840830111e+00 7.807459025006600292e-38
4.297004704320841917e+00 8.105211149762199224e-38
4.552935074866949705e+00 8.376888671745124838e-38
4.824108704165371186e+00 8.609121858736604547e-38
5.111433483440167791e+00 8.792382272182681427e-38
5.415871378079473608e+00 8.897238129753294703e-38
5.738441648302395670e+00 8.902517449938392466e-38
6.080224261649424200e+00 8.752685102589635914e-38
6.442363508721373755e+00 8.367842434012371265e-38
6.826071834272389616e+00 7.615517072883869284e-38
7.232633896483537050e+00 6.433871594047442820e-38
7.663410868007458632e+00 4.859314189079158811e-38
8.119844993184013759e+00 3.014531871569479438e-38
8.603464416684504457e+00 1.523750551595471119e-39
9.115888299750823265e+00 9.440136563531488926e-40
9.658832241158703980e+00 6.097653320576596052e-40
1.023411402105453760e+01 4.079090040473855233e-40
1.084365968689610860e+01 2.816981240184019038e-40
1.148951000187309823e+01 2.003021957552349127e-40
1.217382727739662052e+01 1.465771769832167949e-40
1.289890261253309411e+01 1.103331009403525840e-40
1.366716356462007376e+01 8.534323442435992778e-41
1.448118227674534531e+01 6.784051788270456903e-41
1.534368408930013139e+01 5.545909421789847271e-41
1.625755666443794922e+01 4.659152921081590976e-41
1.722585965398787522e+01 4.022097136097585904e-41
1.825183494319044186e+01 3.565095689483941696e-41
1.933891750455232028e+01 3.237660739845850861e-41
2.049074689815848060e+01 3.005215211845545448e-41
2.171117945694505380e+01 2.842730318880194295e-41
2.300430119772919113e+01 2.733259105586852446e-41
2.437444150122221842e+01 2.664109308980369708e-41
2.582618760682677461e+01 2.626441421735787754e-41
2.736439997074672092e+01 2.614030006586416443e-41
2.899422853882878215e+01 2.622206856264637146e-41
3.072112998861759081e+01 2.648082544538497371e-41
3.255088599835060137e+01 2.688777277007531430e-41
3.448962260405759395e+01 2.742108213023567237e-41
3.654383070957258184e+01 2.808554621911803370e-41
3.872038781812557318e+01 2.886227474585597513e-41
4.102658105827194390e+01 2.974154022039280625e-41
4.347013158125026422e+01 3.073635416991460233e-41
4.605922041145108636e+01 3.181708497313488918e-41
4.880251583654433745e+01 3.300717297668693610e-41
5.170920242896760755e+01 3.429879979282350279e-41
5.478901179593945159e+01 3.569434517606233243e-41
5.805225516094901650e+01 3.718869510388706405e-41
6.150985788580504021e+01 3.879858740730854517e-41
6.517339604882427295e+01 4.049854755894879991e-41
6.905513520162330110e+01 4.232450745776623981e-41
7.316807143427199378e+01 4.424673751439703466e-41
7.752597488629464806e+01 4.631832224231237377e-41
8.214343584919430441e+01 4.850356960131097233e-41
8.703591361485165123e+01 5.081038816681977774e-41
9.221978823334330855e+01 5.324941285969224081e-41
9.771241535346501905e+01 5.584685971959391568e-41
1.035321843295662632e+02 5.858453514199009349e-41
1.096985797892384085e+02 6.145918459754184175e-41
1.162322468679852960e+02 6.452046759659996244e-41
1.231550603292826196e+02 6.774686260331022904e-41
1.304901978014403028e+02 7.116017924176224675e-41
1.382622173764656281e+02 7.476511440237729530e-41
1.464971398307286279e+02 7.858013872151696581e-41
1.552225357427047925e+02 8.259413837309568912e-41
1.644676177994664386e+02 8.684391310071598853e-41
1.742633386009650849e+02 9.136278645303411447e-41
1.846424942895544348e+02 9.608735462596499152e-41
1.956398343517064689e+02 1.011478095219341274e-40
2.072921779595371845e+02 1.064568390687444246e-40
2.196385372416546886e+02 1.120742775843600541e-40
2.327202478960409735e+02 1.180511997044231611e-40
2.465811075822603868e+02 1.243264758193715908e-40
2.612675225563328922e+02 1.310020074065724174e-40
2.768286630392066741e+02 1.380553033805128242e-40
2.933166278390045250e+02 1.455494202112025216e-40
3.107866187782013867e+02 1.534596811383208638e-40
3.292971255097151584e+02 1.618011009101276353e-40
3.489101213406773923e+02 1.707002468902823418e-40
3.696912707195028247e+02 1.800669805582774985e-40
3.917101490809260440e+02 1.900680281056117867e-40
4.150404757850476472e+02 2.005658881572990872e-40
4.397603609302720997e+02 2.117838553990952197e-40
4.659525668664682030e+02 2.235629664809535143e-40
4.937047852839003781e+02 2.361357287842624918e-40
5.231099308056263908e+02 2.493389440113891368e-40
5.542664520663107623e+02 2.634198425725976375e-40
5.872786613189482523e+02 2.782776290630341746e-40
6.222570836730230894e+02 2.940786592122863147e-40
6.593188271333548300e+02 3.107786536946038853e-40
6.985879746785249154e+02 3.285055136653429418e-40
7.401959996915644524e+02 3.472589265538046783e-40
7.842822061337682271e+02 3.671505597435234108e-40
8.309941949353395785e+02 3.881893021433989513e-40
8.804883581643464368e+02 4.105284316492764507e-40
9.329304026284686415e+02 4.341173704075273235e-40
9.884959046625585870e+02 4.592252736601154820e-40
1.047370897959450758e+03 4.856712211341627792e-40
1.109752496412072105e+03 5.139088486980327876e-40
1.175849554052158055e+03 5.435645363173495103e-40
1.245883364295008050e+03 5.753493563207605829e-40
1.320088400831419449e+03 6.086476584843049683e-40
1.398713102647238657e+03 6.442805521785455886e-40
1.482020705798860035e+03 6.817087316178881047e-40
1.570290124729377567e+03 7.216289419181240582e-40
1.663816886076130686e+03 7.637345624956001514e-40
1.762914118095947970e+03 8.084269555240052160e-40
1.867913599020784659e+03 8.557860727803265740e-40
1.979166867853557278e+03 9.058621709926718866e-40
2.097046401323234932e+03 9.589782526569894067e-40
2.221946860939523958e+03 1.015137137648288727e-39
2.354286414322420114e+03 1.074867961096474909e-39
2.494508135230316384e+03 1.137752399313692048e-39
2.643081486974108429e+03 1.205211121213978945e-39
2.800503894183631019e+03 1.275946527403641656e-39
2.967302408188872505e+03 1.351427306344731941e-39
3.144035471591500027e+03 1.430991590688765120e-39
3.331294787934677061e+03 1.515424360945164597e-39
3.529707302730650099e+03 1.604929804249987680e-39
3.739937302478801485e+03 1.699463729337760938e-39
3.962688638701478339e+03 1.799851160841860547e-39
4.198707084443914027e+03 1.905761521324203548e-39
4.448782831127585268e+03 2.019031122389879155e-39
4.713753134116728688e+03 2.138171035700456279e-39
4.994505115855139593e+03 2.265303737187435947e-39
5.291978735958447032e+03 2.399209229407618347e-39
5.607169938205458493e+03 2.541335289427476303e-39
5.941133984965039417e+03 2.691997777032967168e-39
6.294988990221887434e+03 2.851039999180769707e-39
6.669919663030128504e+03 3.020071694330815846e-39
7.067181273927491020e+03 3.198210723261014494e-39
7.488103857590030202e+03 3.389216772527259660e-39
7.934096665797492278e+03 3.589752325817859448e-39
8.406652885618334039e+03 3.803490899634833265e-39
8.907354638610438997e+03 4.029119849113787968e-39
9.437878277775391325e+03 4.267988004014978562e-39
1.000000000000000000e+04 4.521396478172713746e-39
