# SI neutrino floor for He 
#  Column 0 = Mass [GeV] 
#  Column 1 = Cross section [cm^2]
1.000000000000000056e-01 2.101370704552731917e-45
1.039255682936712638e-01 2.326133276495133562e-45
1.080052374516252828e-01 2.572566607702419463e-45
1.122450568085306410e-01 2.840267751590077652e-45
1.166513131698196093e-01 3.132838058140312103e-45
1.212305401337652189e-01 3.450669808135624721e-45
1.259895277795027302e-01 3.797068355460718198e-45
1.309353327353610374e-01 4.170323163436177167e-45
1.360752886424333452e-01 4.574920739564797445e-45
1.414170170289023587e-01 5.012982965443632350e-45
1.469684386112446450e-01 5.480430466597549049e-45
1.527377850390713721e-01 5.982822571394720887e-45
1.587336111010209105e-01 6.514881992906497469e-45
1.649648074098020167e-01 7.085332279401823559e-45
1.714406135851970769e-01 7.683430301062490913e-45
1.781706319545730832e-01 8.318092957060032623e-45
1.851648417912155065e-01 8.980533870263420721e-45
1.924336141115980114e-01 9.675463228890868871e-45
1.999877270535286022e-01 1.039239244868564915e-44
2.078383818579757347e-01 1.113056541542737898e-44
2.159972194782718291e-01 1.188799127761118204e-44
2.244763378413223709e-01 1.265437819027922343e-44
2.332883097864157096e-01 1.343235139472541582e-44
2.424462017082328336e-01 1.420660458956270474e-44
2.519635929317015077e-01 1.498012059996797141e-44
2.618545958474232660e-01 1.574265937605320664e-44
2.721338768375307082e-01 1.650761202572235636e-44
2.828166780230032540e-01 1.727138222324900534e-44
2.939188398646885858e-01 1.802704427591751436e-44
3.054568246515431684e-01 1.879051187191462881e-44
3.174477409109192627e-01 1.957947707830296526e-44
3.299093687770939809e-01 2.037747515270931509e-44
3.428601863556585694e-01 2.119086993605391220e-44
3.563193971228584833e-01 2.206895077152446355e-44
3.703069584005140302e-01 2.295914610919840319e-44
3.848436109487430312e-01 2.389883013649588808e-44
3.999509097203664543e-01 2.488914626073645510e-44
4.156512558225988752e-01 2.590351012294462970e-44
4.319679297334173551e-01 2.698067564566205975e-44
4.489251258218605600e-01 2.810072501655000800e-44
4.665479882234472853e-01 2.921474485418914955e-44
4.848626481239080577e-01 3.034453024726089175e-44
5.038962625065149803e-01 3.147108160085694997e-44
5.236770544204653044e-01 3.254236880991985459e-44
5.442343548300266898e-01 3.349847920617277242e-44
5.655986461065004578e-01 3.429852269764313586e-44
5.878016072274911963e-01 3.491509083466900545e-44
6.108761607505036606e-01 3.523840630315774604e-44
6.348565216305216419e-01 3.529236524310529834e-44
6.597782479539537892e-01 3.501192764868748058e-44
6.856782936641739878e-01 3.443496512550258278e-44
7.125950633568408632e-01 3.358716887214924005e-44
7.405684692262436419e-01 3.250647040808056211e-44
7.696399902471157128e-01 3.124503617171829648e-44
7.998527336796710241e-01 2.982354544638105522e-44
8.312514989890629202e-01 2.829357099369770117e-44
8.638828442740447144e-01 2.669165050126470345e-44
8.977951553033320931e-01 2.499930708169919622e-44
9.330387172620362435e-01 2.328169889501334526e-44
9.696657893145520513e-01 2.153384609387318436e-44
1.007730682094461150e+00 1.978796134480090412e-44
1.047289838236358461e+00 1.807385986949720263e-44
1.088401916069005937e+00 1.639834358727203827e-44
1.131127876593921444e+00 1.480814768811236244e-44
1.175531073878369304e+00 1.330076004899362784e-44
1.221677348996791812e+00 1.191567556829510466e-44
1.269635127659973550e+00 1.065366827619019860e-44
1.319475521676706009e+00 9.515470228556220394e-45
1.371272434398400186e+00 8.502804609915278284e-45
1.425102670302997865e+00 7.605590656977085036e-45
1.481046048880674704e+00 6.826804008915124141e-45
1.539185522990205390e+00 6.153839441875837142e-45
1.599607301861486919e+00 5.567351419086325473e-45
1.662400978926611872e+00 5.067619715582653648e-45
1.727659664669035644e+00 4.644303077869655357e-45
1.795480124687831358e+00 4.283671419105467864e-45
1.865962923181746058e+00 3.977991287214188290e-45
1.939212572065829976e+00 3.723278087473027169e-45
2.015337685941732904e+00 3.508794367989094905e-45
2.094451143151469630e+00 3.333968927461895021e-45
2.176670253153459189e+00 3.189534136245999958e-45
2.262116930469025178e+00 3.073530056467691423e-45
2.350917875457286588e+00 2.981396850367035189e-45
2.443204762186487855e+00 2.910393967980050676e-45
2.539114433680346838e+00 2.860154078913593079e-45
2.638789104828933141e+00 2.826310094514760377e-45
2.742376573264949435e+00 2.806838278187229340e-45
2.850030438518106557e+00 2.802840450208653831e-45
2.961910329772553307e+00 2.811475345061706826e-45
3.078182142565078383e+00 2.832428669459647517e-45
3.199018284775064114e+00 2.863461793240609992e-45
3.324597932270939804e+00 2.901331661582939232e-45
3.455107294592218103e+00 2.951905609813731657e-45
3.590739891061053068e+00 3.008283509477387060e-45
3.731696837732751959e+00 3.076721245625181127e-45
3.878187145610721753e+00 3.149673745408231264e-45
4.030428030568050879e+00 3.230013544383256199e-45
4.188645235435270564e+00 3.318551144267413041e-45
4.353073364731890216e+00 3.414021147096339280e-45
4.523956232538053790e+00 3.516527554962121215e-45
4.701547224022132099e+00 3.625137849971722089e-45
4.886109671160325796e+00 3.740823512766252043e-45
5.077917243205400943e+00 3.862926823153168510e-45
5.277254352483537581e+00 3.993390401358173159e-45
5.484416576121017961e+00 4.131408940825883677e-45
5.699711094326075589e+00 4.274406579584964548e-45
5.923457145875802965e+00 4.421340082098882659e-45
6.155986501483507567e+00 4.578554416266107102e-45
6.397643955748426592e+00 4.743473602669284656e-45
6.648787838417263174e+00 4.911905591494371402e-45
6.909790545715641663e+00 5.092937527215934597e-45
7.181039092537348623e+00 5.276821154882173314e-45
7.462935686310133043e+00 5.473421604915786679e-45
7.755898323389001980e+00 5.672872156787785452e-45
8.060361408861341559e+00 5.887520092119418108e-45
8.376776400682915735e+00 6.102845721428041755e-45
8.705612479099860579e+00 6.332291051224678203e-45
9.047357242349292505e+00 6.568376132690074301e-45
9.402517429670131932e+00 6.812162263781766697e-45
9.771619672696177261e+00 7.071094528882740970e-45
1.015521127634568010e+01 7.334965424634932150e-45
1.055386103036522982e+01 7.607609273235699919e-45
1.096816005273137939e+01 7.895938317979499376e-45
1.139872266616051455e+01 8.195861315936878534e-45
1.184618730902683659e+01 8.503628358267396243e-45
1.231121748203889510e+01 8.822133679906086763e-45
1.279450273207873323e+01 9.156673392450736349e-45
1.329675967466211262e+01 9.505985383481965921e-45
1.381873305653632222e+01 9.868101520736943650e-45
1.436119685999078754e+01 1.023937085512776031e-44
1.492495545051828998e+01 1.062605917541474051e-44
1.551084476952840596e+01 1.102723251859198251e-44
1.611973357388157169e+01 1.144348701609807188e-44
1.675252472408215354e+01 1.187693955617531459e-44
1.741015652304015404e+01 1.232747080324775542e-44
1.809360410738716496e+01 1.279439016574203988e-44
1.880388089340914703e+01 1.327854767232641440e-44
1.954204007974053425e+01 1.378303393017128932e-44
2.030917620904734733e+01 1.430732636569456041e-44
2.110642679101554720e+01 1.485110537830946526e-44
2.193497398905057949e+01 1.541519501219513003e-44
2.279604637318979599e+01 1.600043382283307696e-44
2.369092074182632146e+01 1.660772234868130200e-44
2.462092401494625449e+01 1.723800482703559191e-44
2.558743520168586372e+01 1.789535233303423226e-44
2.659188744512693603e+01 1.857861142943980503e-44
2.763577014736157267e+01 1.928878330376006998e-44
2.872063117797828014e+01 2.002631314229584799e-44
2.984807916924324189e+01 2.079239766158518505e-44
3.101978590138096692e+01 2.158627278410102864e-44
3.223748878149029906e+01 2.241540389183916065e-44
3.350299341977229517e+01 2.326977572170123217e-44
3.481817630688966148e+01 2.415533354932144945e-44
3.618498759642746876e+01 2.507513518479768336e-44
3.760545399658171561e+01 2.603567708941208988e-44
3.908168177536263954e+01 2.703354400000254832e-44
4.061585988376979373e+01 2.807682718231636240e-44
4.221026320156898493e+01 2.916207665330234084e-44
4.386725591048498529e+01 3.026868077790310254e-44
4.558929499981059053e+01 3.142446308853780404e-44
4.737893390963144213e+01 3.263011725618969100e-44
4.923882631706736390e+01 3.389352636666199824e-44
5.117173007114605099e+01 3.520381517401075994e-44
5.318051128214197121e+01 3.654624306396334372e-44
5.526814857144603366e+01 3.794696610310877722e-44
5.743773748826581027e+01 3.941383297452119600e-44
5.969249509970733669e+01 4.093728805861616933e-44
6.203576476104268522e+01 4.251613114763896366e-44
6.447102107323868836e+01 4.413730550878883983e-44
6.700187503509583564e+01 4.584323288825737483e-44
6.963207939763883303e+01 4.763278922961235137e-44
7.236553422869657481e+01 4.947212349491895227e-44
7.520629269592407695e+01 5.135780562449354256e-44
7.815856707684091020e+01 5.334448447827547063e-44
8.122673500479712061e+01 5.542690083212593832e-44
8.441534596012985503e+01 5.756807185262414088e-44
8.772912801613355782e+01 5.977787240295777350e-44
9.117299484984921776e+01 6.209673740606173418e-44
9.475205302806537588e+01 6.453021762230201151e-44
9.847160957933773773e+01 6.699073745571641121e-44
1.023371798632519187e+02 6.958925796902241422e-44
1.063544957486011242e+02 7.232230237897625565e-44
1.105295141126021008e+02 7.511405429505132955e-44
1.148684256737553540e+02 7.800533184838511522e-44
1.193776641714435698e+02 8.104148237133349253e-44
1.240639159058831780e+02 8.422424710520500132e-44
1.289341296525714426e+02 8.745056729715571877e-44
1.339955269659338342e+02 9.086892922921604250e-44
1.392556128874462047e+02 9.442648525264882369e-44
1.447221870741134353e+02 9.805599880029951538e-44
1.504033553638023761e+02 1.018629180724836450e-43
1.563075417945815673e+02 1.058847321453213687e-43
1.624435010958865462e+02 1.099579859438584497e-43
1.688203316700362677e+02 1.142370499955605276e-43
1.754474890833459710e+02 1.187383457319779151e-43
1.823348000868440408e+02 1.233055395032406815e-43
1.894924771873821783e+02 1.281075203297325619e-43
1.969311337907421660e+02 1.331615443974707210e-43
2.046617999391989713e+02 1.383022771856415188e-43
2.126959386668689831e+02 1.436864130927744121e-43
2.210454629971021632e+02 1.493580577969756670e-43
2.297227536071151235e+02 1.551043570936924808e-43
2.387406771860646870e+02 1.611759726712200327e-43
2.481126055137767707e+02 1.675471235268917663e-43
2.578524352884273867e+02 1.740015015098421997e-43
2.679746087325689246e+02 1.808014096565300168e-43
2.784941350080644042e+02 1.879205601976810217e-43
2.894266124716749005e+02 1.951771957245632379e-43
3.007882518043098798e+02 2.028457736882149547e-43
3.125959000482278043e+02 2.108571218504568505e-43
3.248670655878374873e+02 2.189668882236384076e-43
3.376199441111336910e+02 2.275797337104270375e-43
3.508734455902711034e+02 2.364780731627306066e-43
3.646472223212745121e+02 2.456607782840098341e-43
3.789616980644715909e+02 2.553498432067425903e-43
3.938380983288489006e+02 2.653289221275360068e-43
4.092984818452438276e+02 2.756069129767619751e-43
4.253657732750387481e+02 2.865398033838193113e-43
4.420637972028529816e+02 2.976259521627111671e-43
4.594173134636476448e+02 3.093124554010612708e-43
4.774520538566126220e+02 3.215609030265799228e-43
4.961947603002902838e+02 3.339462819210158375e-43
5.156732244854963483e+02 3.470620506074255193e-43
5.359163290848514407e+02 3.607186045665003953e-43
5.569540905800130304e+02 3.747263797695412877e-43
5.788177037701274230e+02 3.895147496881738271e-43
6.015395880274832052e+02 4.047503182767509085e-43
6.251534353689711452e+02 4.204424643635664265e-43
6.496942604146117901e+02 4.371745505784178613e-43
6.751984523072501361e+02 4.540860197508848677e-43
7.017038286703822223e+02 4.719519877918524360e-43
7.292496916841444090e+02 4.906265209259175982e-43
7.578768863625922450e+02 5.095335134287747356e-43
7.876278611187054821e+02 5.296349613147425511e-43
8.185467307069020535e+02 5.504058770920189865e-43
8.506793416364153018e+02 5.718645149416074412e-43
8.840733401525062618e+02 5.944808606303235560e-43
9.187782428863330324e+02 6.175800244332727362e-43
9.548455102782293125e+02 6.416993369399730958e-43
9.923286228832545248e+02 6.672257317190149292e-43
1.031283160672184749e+03 6.930517411266133037e-43
1.071766885445503476e+03 7.204111824657354950e-43
1.113839826482618264e+03 7.487097145942654306e-43
1.157564369553303550e+03 7.776864939910618786e-43
1.203005349423324333e+03 8.086586507652978569e-43
1.250230145991456084e+03 8.400265022196956492e-43
1.299308784200414493e+03 8.730490682551717030e-43
1.350314037869872209e+03 9.076330336670195398e-43
1.403321537605484764e+03 9.426351027779103119e-43
1.458409882943986304e+03 9.798844840236502108e-43
1.515660758900601195e+03 1.018343788516460463e-42
1.575159057091621207e+03 1.058074525721628428e-42
1.636993001611701857e+03 1.099951072732331791e-42
1.701254279852589207e+03 1.142656741882296833e-42
1.768038178457205049e+03 1.187421011792008041e-42
1.837443724610724757e+03 1.234655090843485051e-42
1.909573832878096709e+03 1.282464450087238815e-42
1.984535457805803162e+03 1.333166525303520535e-42
2.062439752514092561e+03 1.385375378064892394e-42
2.143402233514854743e+03 1.439121284664546142e-42
2.227542951999556408e+03 1.496618841062109739e-42
2.314986671851160736e+03 1.554530684174903036e-42
2.405863054644066779e+03 1.615836844457637419e-42
2.500306851906321299e+03 1.679676313218070773e-42
2.598458104929247384e+03 1.744523157294922583e-42
2.700462352420682237e+03 1.813851829523371010e-42
2.806470846309838635e+03 1.884602400967744791e-42
2.916640776023700710e+03 1.958489415966831039e-42
3.031135501567576284e+03 2.036128716592117842e-42
3.150124795755327796e+03 2.114776300103279222e-42
3.273785095948577236e+03 2.198265720159510993e-42
3.402299765678064432e+03 2.284836040169648430e-42
3.535859366535175923e+03 2.373850914889435915e-42
3.674661940736687939e+03 2.467804354342089300e-42
3.818913304781854094e+03 2.563858477562235853e-42
3.968827354637157896e+03 2.664221037247938594e-42
4.124626382901347824e+03 2.770332904167058487e-42
4.286541408420925109e+03 2.877614399542395479e-42
4.454812518844988517e+03 2.991408905850612555e-42
4.629689226627267999e+03 3.108614348359957341e-42
4.811430839003254732e+03 3.229257949279145158e-42
5.000306842491089810e+03 3.358367131259542671e-42
5.196597302486196895e+03 3.488332633885998483e-42
5.400593278542373810e+03 3.625975999322273981e-42
5.612597255954965476e+03 3.769142885708320442e-42
5.832923594286199659e+03 3.914763697155258578e-42
6.061898993497572519e+03 4.070597249727745945e-42
6.299862978380693676e+03 4.229179167948583483e-42
6.547168402004729614e+03 4.395185750768816274e-42
6.804181968927094204e+03 4.569451663862112781e-42
7.071284778942996127e+03 4.745717404294884249e-42
7.348872892180387680e+03 4.933160446180066532e-42
7.637357916378011396e+03 5.126086330713664787e-42
7.937167617217543011e+03 5.323813330755997982e-42
8.248746552614580651e+03 5.529105820053649511e-42
8.572556731909324299e+03 5.731933203746312022e-42
8.909078300934124854e+03 5.933031531081637127e-42
9.258810253973944782e+03 6.125109068622789518e-42
9.622271173675135287e+03 6.296661792187291673e-42
1.000000000000000000e+04 6.453221876254924716e-42
