# SI neutrino floor for Si 
#  Column 0 = Mass [GeV] 
#  Column 1 = Cross section [cm^2]
1.000000000000000056e-01 2.254744923208973134e-45
1.039255682936712638e-01 2.475565739227909864e-45
1.080052374516252828e-01 2.718328937195618937e-45
1.122450568085306410e-01 2.982364123660987078e-45
1.166513131698196093e-01 3.267638950783932207e-45
1.212305401337652189e-01 3.581718115637720155e-45
1.259895277795027302e-01 3.915233642976368889e-45
1.309353327353610374e-01 4.279517312691477128e-45
1.360752886424333452e-01 4.669414491911781544e-45
1.414170170289023587e-01 5.086653334060143921e-45
1.469684386112446450e-01 5.535999881296229281e-45
1.527377850390713721e-01 6.015449941958882991e-45
1.587336111010209105e-01 6.520775517680929677e-45
1.649648074098020167e-01 7.054184583112271372e-45
1.714406135851970769e-01 7.612114836175131517e-45
1.781706319545730832e-01 8.195830709130455777e-45
1.851648417912155065e-01 8.810645179586746144e-45
1.924336141115980114e-01 9.429972490536428439e-45
1.999877270535286022e-01 1.007379050245890141e-44
2.078383818579757347e-01 1.072988211453120396e-44
2.159972194782718291e-01 1.138959220981517964e-44
2.244763378413223709e-01 1.205276353664005197e-44
2.332883097864157096e-01 1.269924027418763400e-44
2.424462017082328336e-01 1.334472893707506061e-44
2.519635929317015077e-01 1.398368687345776044e-44
2.618545958474232660e-01 1.460301972362316409e-44
2.721338768375307082e-01 1.521768855121910017e-44
2.828166780230032540e-01 1.584949658766897581e-44
2.939188398646885858e-01 1.645696546762116112e-44
3.054568246515431684e-01 1.709570926577678408e-44
3.174477409109192627e-01 1.773477240921795141e-44
3.299093687770939809e-01 1.841291504045690641e-44
3.428601863556585694e-01 1.909815347065673427e-44
3.563193971228584833e-01 1.982066606881692337e-44
3.703069584005140302e-01 2.058865914318191442e-44
3.848436109487430312e-01 2.137082703484783239e-44
3.999509097203664543e-01 2.217074298028131143e-44
4.156512558225988752e-01 2.299285363988412393e-44
4.319679297334173551e-01 2.381477357254510133e-44
4.489251258218605600e-01 2.458611306911716367e-44
4.665479882234472853e-01 2.526657449225494279e-44
4.848626481239080577e-01 2.581589727709461190e-44
5.038962625065149803e-01 2.615781623880791011e-44
5.236770544204653044e-01 2.623668070936494353e-44
5.442343548300266898e-01 2.601132106501810146e-44
5.655986461065004578e-01 2.547934627033436087e-44
5.878016072274911963e-01 2.465829756421372816e-44
6.108761607505036606e-01 2.359181939104799251e-44
6.348565216305216419e-01 2.235599428740635061e-44
6.597782479539537892e-01 2.103308882021641062e-44
6.856782936641739878e-01 1.962941962439674943e-44
7.125950633568408632e-01 1.820382443446170504e-44
7.405684692262436419e-01 1.677026232467195552e-44
7.696399902471157128e-01 1.532551919034232757e-44
7.998527336796710241e-01 1.388092742378337692e-44
8.312514989890629202e-01 1.244877955046145336e-44
8.638828442740447144e-01 1.103566884834008515e-44
8.977951553033320931e-01 9.681631364709881512e-45
9.330387172620362435e-01 8.405253742319886863e-45
9.696657893145520513e-01 7.226982814598494707e-45
1.007730682094461150e+00 6.171803495676330451e-45
1.047289838236358461e+00 5.247378303152638564e-45
1.088401916069005937e+00 4.452482793948199197e-45
1.131127876593921444e+00 3.781177075129774516e-45
1.175531073878369304e+00 3.223299404855803388e-45
1.221677348996791812e+00 2.767782272742617205e-45
1.269635127659973550e+00 2.397947558485948013e-45
1.319475521676706009e+00 2.101288704184943772e-45
1.371272434398400186e+00 1.865749041301934377e-45
1.425102670302997865e+00 1.680416369345988924e-45
1.481046048880674704e+00 1.536172821132492696e-45
1.539185522990205390e+00 1.425401684288815571e-45
1.599607301861486919e+00 1.341714387236068058e-45
1.662400978926611872e+00 1.280954874228110498e-45
1.727659664669035644e+00 1.239393091731150614e-45
1.795480124687831358e+00 1.211462031303368261e-45
1.865962923181746058e+00 1.196455927108836188e-45
1.939212572065829976e+00 1.192618261970443596e-45
2.015337685941732904e+00 1.196527937276011370e-45
2.094451143151469630e+00 1.208149770807136487e-45
2.176670253153459189e+00 1.225620882251432875e-45
2.262116930469025178e+00 1.248511023432615014e-45
2.350917875457286588e+00 1.275949671346377181e-45
2.443204762186487855e+00 1.306310676255944836e-45
2.539114433680346838e+00 1.341122726125155766e-45
2.638789104828933141e+00 1.378519178593567132e-45
2.742376573264949435e+00 1.419251143535739051e-45
2.850030438518106557e+00 1.460949785530109531e-45
2.961910329772553307e+00 1.505084179758635943e-45
3.078182142565078383e+00 1.551557260389621006e-45
3.199018284775064114e+00 1.599543979895714737e-45
3.324597932270939804e+00 1.647738857989703652e-45
3.455107294592218103e+00 1.696664122357912756e-45
3.590739891061053068e+00 1.746243224350567113e-45
3.731696837732751959e+00 1.796405071857078427e-45
3.878187145610721753e+00 1.846150097965521238e-45
4.030428030568050879e+00 1.894707627287588288e-45
4.188645235435270564e+00 1.942532362100283630e-45
4.353073364731890216e+00 1.989247662939734159e-45
4.523956232538053790e+00 2.033168521370166543e-45
4.701547224022132099e+00 2.074265732202096241e-45
4.886109671160325796e+00 2.111075111239085566e-45
5.077917243205400943e+00 2.145307993281272761e-45
5.277254352483537581e+00 2.173123377362262311e-45
5.484416576121017961e+00 2.195339975516339381e-45
5.699711094326075589e+00 2.209336060449897124e-45
5.923457145875802965e+00 2.215344850136142664e-45
6.155986501483507567e+00 2.211116492395499182e-45
6.397643955748426592e+00 2.194251421063187374e-45
6.648787838417263174e+00 2.162164576247773434e-45
6.909790545715641663e+00 2.112275925936846558e-45
7.181039092537348623e+00 2.039341465167759692e-45
7.462935686310133043e+00 1.935757290701040049e-45
7.755898323389001980e+00 1.797542897791889523e-45
8.060361408861341559e+00 1.625651645213382622e-45
8.376776400682915735e+00 1.423145969611022871e-45
8.705612479099860579e+00 1.191647416226150507e-45
9.047357242349292505e+00 9.393761713364763717e-46
9.402517429670131932e+00 6.749299394815727158e-46
9.771619672696177261e+00 3.304120273195306359e-46
1.015521127634568010e+01 3.731915094087496424e-47
1.055386103036522982e+01 2.849468074102221546e-47
1.096816005273137939e+01 2.209294804794794354e-47
1.139872266616051455e+01 1.733944606178752330e-47
1.184618730902683659e+01 1.377497001757921014e-47
1.231121748203889510e+01 1.105997033839470230e-47
1.279450273207873323e+01 8.972948320027785121e-48
1.329675967466211262e+01 7.350011415704374694e-48
1.381873305653632222e+01 6.076979310245449249e-48
1.436119685999078754e+01 5.072017473577222881e-48
1.492495545051828998e+01 4.269888243550159367e-48
1.551084476952840596e+01 3.629141738510062203e-48
1.611973357388157169e+01 3.113307234597085291e-48
1.675252472408215354e+01 2.694842608297106206e-48
1.741015652304015404e+01 2.353500656730438559e-48
1.809360410738716496e+01 2.073244060860558274e-48
1.880388089340914703e+01 1.841233712225940439e-48
1.954204007974053425e+01 1.648321153133200825e-48
2.030917620904734733e+01 1.489004039718951326e-48
2.110642679101554720e+01 1.356581998146628752e-48
2.193497398905057949e+01 1.245732046963649089e-48
2.279604637318979599e+01 1.153220944009335074e-48
2.369092074182632146e+01 1.075975774845864848e-48
2.462092401494625449e+01 1.011119179082670058e-48
2.558743520168586372e+01 9.569031464405851400e-49
2.659188744512693603e+01 9.124949857705982622e-49
2.763577014736157267e+01 8.761404944634639073e-49
2.872063117797828014e+01 8.465880415092360366e-49
2.984807916924324189e+01 8.229730696872991568e-49
3.101978590138096692e+01 8.046420369576398967e-49
3.223748878149029906e+01 7.899901407163050133e-49
3.350299341977229517e+01 7.793336045616560923e-49
3.481817630688966148e+01 7.722406750270490920e-49
3.618498759642746876e+01 7.681521962770200176e-49
3.760545399658171561e+01 7.669475784773931524e-49
3.908168177536263954e+01 7.679022583563227439e-49
4.061585988376979373e+01 7.711120501653616206e-49
4.221026320156898493e+01 7.766299051954593171e-49
4.386725591048498529e+01 7.836536985249099174e-49
4.558929499981059053e+01 7.922501946006325770e-49
4.737893390963144213e+01 8.024985008494785850e-49
4.923882631706736390e+01 8.142872874910082994e-49
5.117173007114605099e+01 8.276046118315399768e-49
5.318051128214197121e+01 8.419445283307824230e-49
5.526814857144603366e+01 8.579852982940424565e-49
5.743773748826581027e+01 8.753084813126294655e-49
5.969249509970733669e+01 8.939450183482543882e-49
6.203576476104268522e+01 9.139973819157943653e-49
6.447102107323868836e+01 9.352915500081109486e-49
6.700187503509583564e+01 9.578212162417354144e-49
6.963207939763883303e+01 9.814183563960468838e-49
7.236553422869657481e+01 1.006477988194977505e-48
7.520629269592407695e+01 1.032900228682399028e-48
7.815856707684091020e+01 1.060686147265059322e-48
8.122673500479712061e+01 1.089549872832415983e-48
8.441534596012985503e+01 1.119905444240572136e-48
8.772912801613355782e+01 1.151724415682427313e-48
9.117299484984921776e+01 1.185103683845370558e-48
9.475205302806537588e+01 1.219788641146617632e-48
9.847160957933773773e+01 1.256240228483813034e-48
1.023371798632519187e+02 1.294327290339831009e-48
1.063544957486011242e+02 1.333775956641434937e-48
1.105295141126021008e+02 1.374795813508606879e-48
1.148684256737553540e+02 1.417486245183843543e-48
1.193776641714435698e+02 1.462306605620235777e-48
1.240639159058831780e+02 1.508886006260170265e-48
1.289341296525714426e+02 1.557232330889811122e-48
1.339955269659338342e+02 1.607877049033652525e-48
1.392556128874462047e+02 1.660396446558585634e-48
1.447221870741134353e+02 1.714708055667925089e-48
1.504033553638023761e+02 1.771654097201064755e-48
1.563075417945815673e+02 1.830183645905449142e-48
1.624435010958865462e+02 1.891915781706071398e-48
1.688203316700362677e+02 1.955504533174271622e-48
1.754474890833459710e+02 2.022184773625258658e-48
1.823348000868440408e+02 2.090751585902850501e-48
1.894924771873821783e+02 2.162987796861513493e-48
1.969311337907421660e+02 2.237297579755210608e-48
2.046617999391989713e+02 2.314964453068959462e-48
2.126959386668689831e+02 2.395507061089319522e-48
2.210454629971021632e+02 2.479002737323984416e-48
2.297227536071151235e+02 2.565999599895750045e-48
2.387406771860646870e+02 2.656872842360829688e-48
2.481126055137767707e+02 2.750124611735667383e-48
2.578524352884273867e+02 2.847901215714226018e-48
2.679746087325689246e+02 2.949840007920691870e-48
2.784941350080644042e+02 3.054858395206269262e-48
2.894266124716749005e+02 3.164430129383469658e-48
3.007882518043098798e+02 3.278568728524601050e-48
3.125959000482278043e+02 3.397326953400058591e-48
3.248670655878374873e+02 3.520656190460804637e-48
3.376199441111336910e+02 3.647908688694635252e-48
3.508734455902711034e+02 3.780895840650257410e-48
3.646472223212745121e+02 3.919355772431599072e-48
3.789616980644715909e+02 4.063543775923847038e-48
3.938380983288489006e+02 4.212681223188784726e-48
4.092984818452438276e+02 4.367351362784299694e-48
4.253657732750387481e+02 4.527858465564173155e-48
4.420637972028529816e+02 4.695395570199978226e-48
4.594173134636476448e+02 4.870092553175690686e-48
4.774520538566126220e+02 5.051351594295737552e-48
4.961947603002902838e+02 5.239180337492949659e-48
5.156732244854963483e+02 5.434500803028610212e-48
5.359163290848514407e+02 5.637464113615979773e-48
5.569540905800130304e+02 5.848371516387835644e-48
5.788177037701274230e+02 6.067534601257247825e-48
6.015395880274832052e+02 6.295279526929778159e-48
6.251534353689711452e+02 6.531780882078727974e-48
6.496942604146117901e+02 6.777473674637413055e-48
6.751984523072501361e+02 7.033251588256415320e-48
7.017038286703822223e+02 7.299046423696213554e-48
7.292496916841444090e+02 7.575292597627273691e-48
7.578768863625922450e+02 7.862367699005869110e-48
7.876278611187054821e+02 8.160703377942832866e-48
8.185467307069020535e+02 8.470926756384163051e-48
8.506793416364153018e+02 8.793281088499832689e-48
8.840733401525062618e+02 9.128247347969148041e-48
9.187782428863330324e+02 9.476317089928361525e-48
9.548455102782293125e+02 9.838005774977505032e-48
9.923286228832545248e+02 1.021384743152636100e-47
1.031283160672184749e+03 1.060439950766260491e-47
1.071766885445503476e+03 1.101023857126395114e-47
1.113839826482618264e+03 1.143196584741414575e-47
1.157564369553303550e+03 1.187020118255464646e-47
1.203005349423324333e+03 1.232559468366021943e-47
1.250230145991456084e+03 1.279881735147133630e-47
1.299308784200414493e+03 1.329057085784150541e-47
1.350314037869872209e+03 1.380158344583083887e-47
1.403321537605484764e+03 1.433260994807131797e-47
1.458409882943986304e+03 1.488443440266067506e-47
1.515660758900601195e+03 1.545786821318117524e-47
1.575159057091621207e+03 1.605375831971336426e-47
1.636993001611701857e+03 1.667299095791811810e-47
1.701254279852589207e+03 1.731669133813091841e-47
1.768038178457205049e+03 1.798647775563024628e-47
1.837443724610724757e+03 1.868259569274587271e-47
1.909573832878096709e+03 1.940606035025779887e-47
1.984535457805803162e+03 2.015794620023638736e-47
2.062439752514092561e+03 2.093906311274434132e-47
2.143402233514854743e+03 2.175019866977553728e-47
2.227542951999556408e+03 2.259288545806574310e-47
2.314986671851160736e+03 2.346921142658074297e-47
2.405863054644066779e+03 2.437965703698506066e-47
2.500306851906321299e+03 2.532656498846852011e-47
2.598458104929247384e+03 2.631158722946695990e-47
2.700462352420682237e+03 2.733536556210564625e-47
2.806470846309838635e+03 2.839907407888459698e-47
2.916640776023700710e+03 2.950457671953402660e-47
3.031135501567576284e+03 3.065356400660908411e-47
3.150124795755327796e+03 3.184774444852993261e-47
3.273785095948577236e+03 3.308770244886157556e-47
3.402299765678064432e+03 3.437601964913364308e-47
3.535859366535175923e+03 3.571469695147364794e-47
3.674661940736687939e+03 3.710591026771609568e-47
3.818913304781854094e+03 3.854967762192505106e-47
3.968827354637157896e+03 4.004970959784638949e-47
4.124626382901347824e+03 4.160852625444642264e-47
4.286541408420925109e+03 4.322976914436482654e-47
4.454812518844988517e+03 4.491451573624325257e-47
4.629689226627267999e+03 4.666425806434120155e-47
4.811430839003254732e+03 4.848487192339633866e-47
5.000306842491089810e+03 5.038032253623169759e-47
5.196597302486196895e+03 5.235117040648012241e-47
5.400593278542373810e+03 5.439908169188628888e-47
5.612597255954965476e+03 5.652593874223542423e-47
5.832923594286199659e+03 5.873476440243569547e-47
6.061898993497572519e+03 6.102959753652755185e-47
6.299862978380693676e+03 6.341450124833795100e-47
6.547168402004729614e+03 6.589303304546807381e-47
6.804181968927094204e+03 6.846960134079969877e-47
7.071284778942996127e+03 7.114963904825986698e-47
7.348872892180387680e+03 7.393303503661090768e-47
7.637357916378011396e+03 7.682051167927856154e-47
7.937167617217543011e+03 7.982146699912260316e-47
8.248746552614580651e+03 8.294188028598689253e-47
8.572556731909324299e+03 8.619094402916835435e-47
8.909078300934124854e+03 8.956911007208463213e-47
9.258810253973944782e+03 9.308007236289478495e-47
9.622271173675135287e+03 9.672915255456865182e-47
1.000000000000000000e+04 1.005176749637681347e-46
