# SI neutrino floor for Xe 
#  Column 0 = Mass [GeV] 
#  Column 1 = Cross section [cm^2]
1.000000000000000056e-01 4.417091430163337569e-45
1.039255682936712638e-01 4.695239535005460745e-45
1.080052374516252828e-01 5.000948861374834608e-45
1.122450568085306410e-01 5.334965648073573630e-45
1.166513131698196093e-01 5.701928572197581220e-45
1.212305401337652189e-01 6.098919130697612169e-45
1.259895277795027302e-01 6.530617055528999405e-45
1.309353327353610374e-01 7.000085231590806744e-45
1.360752886424333452e-01 7.500612283638837266e-45
1.414170170289023587e-01 8.040353890534718419e-45
1.469684386112446450e-01 8.611952069909849095e-45
1.527377850390713721e-01 9.224151957725270174e-45
1.587336111010209105e-01 9.874732814022049644e-45
1.649648074098020167e-01 1.056214722823610776e-44
1.714406135851970769e-01 1.129013640244555717e-44
1.781706319545730832e-01 1.204384133374303397e-44
1.851648417912155065e-01 1.282375005882747863e-44
1.924336141115980114e-01 1.364361219072732161e-44
1.999877270535286022e-01 1.447137237959701655e-44
2.078383818579757347e-01 1.532827932580993316e-44
2.159972194782718291e-01 1.618706224773902751e-44
2.244763378413223709e-01 1.704868491951832363e-44
2.332883097864157096e-01 1.790357616859281718e-44
2.424462017082328336e-01 1.875038212943246576e-44
2.519635929317015077e-01 1.958284954375866180e-44
2.618545958474232660e-01 2.042092013838495958e-44
2.721338768375307082e-01 2.122970193413764348e-44
2.828166780230032540e-01 2.206371090262297470e-44
2.939188398646885858e-01 2.290880633904327548e-44
3.054568246515431684e-01 2.374775906234153315e-44
3.174477409109192627e-01 2.461491406767382789e-44
3.299093687770939809e-01 2.553220751757189124e-44
3.428601863556585694e-01 2.649415335318325684e-44
3.563193971228584833e-01 2.748753726958522313e-44
3.703069584005140302e-01 2.850957896645857262e-44
3.848436109487430312e-01 2.957472340320363106e-44
3.999509097203664543e-01 3.067346121011142594e-44
4.156512558225988752e-01 3.178336752377662725e-44
4.319679297334173551e-01 3.287442783958414446e-44
4.489251258218605600e-01 3.392274697468452892e-44
4.665479882234472853e-01 3.485975085022174727e-44
4.848626481239080577e-01 3.558627133857111281e-44
5.038962625065149803e-01 3.606452061997198435e-44
5.236770544204653044e-01 3.618583000880850756e-44
5.442343548300266898e-01 3.590400945448141167e-44
5.655986461065004578e-01 3.517062475182515637e-44
5.878016072274911963e-01 3.405073206272157654e-44
6.108761607505036606e-01 3.254467680028506512e-44
6.348565216305216419e-01 3.077296216523266908e-44
6.597782479539537892e-01 2.878091325808961390e-44
6.856782936641739878e-01 2.665209419250435195e-44
7.125950633568408632e-01 2.442145232376592693e-44
7.405684692262436419e-01 2.212042253019176244e-44
7.696399902471157128e-01 1.981117206754730557e-44
7.998527336796710241e-01 1.752030218262176392e-44
8.312514989890629202e-01 1.530967098145333853e-44
8.638828442740447144e-01 1.322026481527928028e-44
8.977951553033320931e-01 1.130668174713555999e-44
9.330387172620362435e-01 9.593863329830261143e-45
9.696657893145520513e-01 8.099152731002586309e-45
1.007730682094461150e+00 6.814428140208566360e-45
1.047289838236358461e+00 5.740561695573224194e-45
1.088401916069005937e+00 4.852675740574713889e-45
1.131127876593921444e+00 4.126667860869332404e-45
1.175531073878369304e+00 3.539809393489580479e-45
1.221677348996791812e+00 3.070697340860470816e-45
1.269635127659973550e+00 2.696891241718565221e-45
1.319475521676706009e+00 2.400758284163451202e-45
1.371272434398400186e+00 2.166802146090252634e-45
1.425102670302997865e+00 1.986523476107867440e-45
1.481046048880674704e+00 1.847358755463160873e-45
1.539185522990205390e+00 1.743549297358368589e-45
1.599607301861486919e+00 1.666792157335177597e-45
1.662400978926611872e+00 1.612961483589748256e-45
1.727659664669035644e+00 1.579125543456647941e-45
1.795480124687831358e+00 1.559692843788177636e-45
1.865962923181746058e+00 1.554941777781460441e-45
1.939212572065829976e+00 1.561573782540422309e-45
2.015337685941732904e+00 1.575731337698655174e-45
2.094451143151469630e+00 1.598559726353881492e-45
2.176670253153459189e+00 1.628454122642192681e-45
2.262116930469025178e+00 1.663782553394806862e-45
2.350917875457286588e+00 1.703363757715924330e-45
2.443204762186487855e+00 1.746852579915094517e-45
2.539114433680346838e+00 1.794845503753204108e-45
2.638789104828933141e+00 1.845871085987470615e-45
2.742376573264949435e+00 1.898541846907734685e-45
2.850030438518106557e+00 1.953288843607311897e-45
2.961910329772553307e+00 2.009848459135743315e-45
3.078182142565078383e+00 2.067546383889845906e-45
3.199018284775064114e+00 2.125108831599004994e-45
3.324597932270939804e+00 2.181646659945619677e-45
3.455107294592218103e+00 2.239347252394945065e-45
3.590739891061053068e+00 2.293908759185171447e-45
3.731696837732751959e+00 2.346322068383391202e-45
3.878187145610721753e+00 2.395298118443430530e-45
4.030428030568050879e+00 2.440091497549485816e-45
4.188645235435270564e+00 2.480445748131282759e-45
4.353073364731890216e+00 2.512420194309516641e-45
4.523956232538053790e+00 2.536437457141484146e-45
4.701547224022132099e+00 2.551487171983939061e-45
4.886109671160325796e+00 2.553294813892992549e-45
5.077917243205400943e+00 2.539889051577935281e-45
5.277254352483537581e+00 2.509492378307174099e-45
5.484416576121017961e+00 2.457494239541277790e-45
5.699711094326075589e+00 2.377712522651017701e-45
5.923457145875802965e+00 2.261800936228601762e-45
6.155986501483507567e+00 2.101820649763762697e-45
6.397643955748426592e+00 1.884872673452077289e-45
6.648787838417263174e+00 1.611568386796093216e-45
6.909790545715641663e+00 1.296566597750639607e-45
7.181039092537348623e+00 9.522148925337119921e-46
7.462935686310133043e+00 5.814240291162701513e-46
7.755898323389001980e+00 3.853715077056233174e-47
8.060361408861341559e+00 2.634007670595754431e-47
8.376776400682915735e+00 1.839590989098128556e-47
8.705612479099860579e+00 1.306817637956568891e-47
9.047357242349292505e+00 9.435106310901141336e-48
9.402517429670131932e+00 6.923567189958091611e-48
9.771619672696177261e+00 5.163992514344862676e-48
1.015521127634568010e+01 3.911731171956144460e-48
1.055386103036522982e+01 3.008958337919682468e-48
1.096816005273137939e+01 2.348493476005494712e-48
1.139872266616051455e+01 1.862798546048149505e-48
1.184618730902683659e+01 1.501680807291335597e-48
1.231121748203889510e+01 1.230000351128683295e-48
1.279450273207873323e+01 1.024052183967183022e-48
1.329675967466211262e+01 8.672717779283717989e-49
1.381873305653632222e+01 7.471314893811511646e-49
1.436119685999078754e+01 6.545560729670878143e-49
1.492495545051828998e+01 5.822766249856410181e-49
1.551084476952840596e+01 5.257576464315511569e-49
1.611973357388157169e+01 4.814201968589105669e-49
1.675252472408215354e+01 4.462080941109706931e-49
1.741015652304015404e+01 4.179795080922484534e-49
1.809360410738716496e+01 3.952139778779424598e-49
1.880388089340914703e+01 3.768685608842467892e-49
1.954204007974053425e+01 3.621339662803816726e-49
2.030917620904734733e+01 3.500540850022994727e-49
2.110642679101554720e+01 3.402918273841931824e-49
2.193497398905057949e+01 3.323639585362009732e-49
2.279604637318979599e+01 3.260970566261790016e-49
2.369092074182632146e+01 3.211110676555102575e-49
2.462092401494625449e+01 3.172385945934993826e-49
2.558743520168586372e+01 3.144421391908114129e-49
2.659188744512693603e+01 3.123338644993971524e-49
2.763577014736157267e+01 3.110486299148178161e-49
2.872063117797828014e+01 3.104292576066182139e-49
2.984807916924324189e+01 3.103239074078669649e-49
3.101978590138096692e+01 3.107728830362446831e-49
3.223748878149029906e+01 3.116809299664424005e-49
3.350299341977229517e+01 3.131554817886988718e-49
3.481817630688966148e+01 3.148739500120607367e-49
3.618498759642746876e+01 3.170860582166866447e-49
3.760545399658171561e+01 3.195866180928426455e-49
3.908168177536263954e+01 3.224319609032993814e-49
4.061585988376979373e+01 3.256814227161482250e-49
4.221026320156898493e+01 3.292411106060163989e-49
4.386725591048498529e+01 3.330594065852414143e-49
4.558929499981059053e+01 3.373004234799870208e-49
4.737893390963144213e+01 3.417823483482875016e-49
4.923882631706736390e+01 3.466404689738495886e-49
5.117173007114605099e+01 3.518712279197182196e-49
5.318051128214197121e+01 3.574455729602775553e-49
5.526814857144603366e+01 3.633288319669491404e-49
5.743773748826581027e+01 3.696352961615924042e-49
5.969249509970733669e+01 3.763323031186764531e-49
6.203576476104268522e+01 3.833866503149959167e-49
6.447102107323868836e+01 3.908735289126512038e-49
6.700187503509583564e+01 3.987077044537639656e-49
6.963207939763883303e+01 4.071251428525293013e-49
7.236553422869657481e+01 4.158350599802575577e-49
7.520629269592407695e+01 4.252834859027958011e-49
7.815856707684091020e+01 4.350307229210645864e-49
8.122673500479712061e+01 4.453231361630017613e-49
8.441534596012985503e+01 4.561403701526384360e-49
8.772912801613355782e+01 4.674843668914257202e-49
9.117299484984921776e+01 4.795107281718854315e-49
9.475205302806537588e+01 4.920450484847513445e-49
9.847160957933773773e+01 5.052185950071761847e-49
1.023371798632519187e+02 5.189525562033487145e-49
1.063544957486011242e+02 5.334913151572615889e-49
1.105295141126021008e+02 5.486682313993136355e-49
1.148684256737553540e+02 5.644137176478598951e-49
1.193776641714435698e+02 5.809029264550649434e-49
1.240639159058831780e+02 5.983014651189466924e-49
1.289341296525714426e+02 6.163423467841784829e-49
1.339955269659338342e+02 6.353735879325557313e-49
1.392556128874462047e+02 6.549765857791631222e-49
1.447221870741134353e+02 6.754204408388441785e-49
1.504033553638023761e+02 6.969296122709563226e-49
1.563075417945815673e+02 7.194069169512085110e-49
1.624435010958865462e+02 7.427051098556697167e-49
1.688203316700362677e+02 7.670434890360567970e-49
1.754474890833459710e+02 7.925449432289764394e-49
1.823348000868440408e+02 8.189117370006542632e-49
1.894924771873821783e+02 8.463060402242426828e-49
1.969311337907421660e+02 8.747976858661207570e-49
2.046617999391989713e+02 9.046573487420458074e-49
2.126959386668689831e+02 9.358178302053770360e-49
2.210454629971021632e+02 9.682354838244405192e-49
2.297227536071151235e+02 1.001959678431009503e-48
2.387406771860646870e+02 1.037038513103874810e-48
2.481126055137767707e+02 1.073489743748046550e-48
2.578524352884273867e+02 1.111301573087547347e-48
2.679746087325689246e+02 1.150766323416929257e-48
2.784941350080644042e+02 1.191850081017090008e-48
2.894266124716749005e+02 1.234620516524693180e-48
3.007882518043098798e+02 1.279126819508635665e-48
3.125959000482278043e+02 1.325415534954658300e-48
3.248670655878374873e+02 1.373520205554665633e-48
3.376199441111336910e+02 1.423504104949999163e-48
3.508734455902711034e+02 1.475449993976234274e-48
3.646472223212745121e+02 1.529468472853260221e-48
3.789616980644715909e+02 1.585639726795796676e-48
3.938380983288489006e+02 1.644051170874825071e-48
4.092984818452438276e+02 1.704789408384182823e-48
4.253657732750387481e+02 1.767945074994366521e-48
4.420637972028529816e+02 1.833612529475453514e-48
4.594173134636476448e+02 1.901889041536053460e-48
4.774520538566126220e+02 1.972877078855545498e-48
4.961947603002902838e+02 2.046681323007873076e-48
5.156732244854963483e+02 2.123412517445863001e-48
5.359163290848514407e+02 2.203184354145967202e-48
5.569540905800130304e+02 2.286115797056320333e-48
5.788177037701274230e+02 2.372329796173576829e-48
6.015395880274832052e+02 2.461955031912610296e-48
6.251534353689711452e+02 2.555124455363577025e-48
6.496942604146117901e+02 2.651976792174288115e-48
6.751984523072501361e+02 2.752655539932216310e-48
7.017038286703822223e+02 2.857311542267496904e-48
7.292496916841444090e+02 2.966095911796844736e-48
7.578768863625922450e+02 3.079170793148693624e-48
7.876278611187054821e+02 3.196705554698353145e-48
8.185467307069020535e+02 3.318830489945544766e-48
8.506793416364153018e+02 3.445697191653213539e-48
8.840733401525062618e+02 3.577549678788849703e-48
9.187782428863330324e+02 3.714521388370554532e-48
9.548455102782293125e+02 3.856870729115214974e-48
9.923286228832545248e+02 4.004807711590425310e-48
1.031283160672184749e+03 4.158600025521321327e-48
1.071766885445503476e+03 4.318521996602557353e-48
1.113839826482618264e+03 4.484756074812082852e-48
1.157564369553303550e+03 4.657561730427826479e-48
1.203005349423324333e+03 4.837328953045939643e-48
1.250230145991456084e+03 5.024338231374760150e-48
1.299308784200414493e+03 5.218716413165302924e-48
1.350314037869872209e+03 5.420543466132761787e-48
1.403321537605484764e+03 5.630103903850077644e-48
1.458409882943986304e+03 5.847889859123250330e-48
1.515660758900601195e+03 6.074195349418404408e-48
1.575159057091621207e+03 6.309314324884640302e-48
1.636993001611701857e+03 6.553667283725836847e-48
1.701254279852589207e+03 6.807605982813471981e-48
1.768038178457205049e+03 7.071497961403820122e-48
1.837443724610724757e+03 7.345783549011157153e-48
1.909573832878096709e+03 7.630561800871713687e-48
1.984535457805803162e+03 7.926459154596328126e-48
2.062439752514092561e+03 8.233911748985961511e-48
2.143402233514854743e+03 8.553338623972791558e-48
2.227542951999556408e+03 8.885689347018726544e-48
2.314986671851160736e+03 9.231553513389254766e-48
2.405863054644066779e+03 9.590982896113445612e-48
2.500306851906321299e+03 9.964975809211741709e-48
2.598458104929247384e+03 1.035358985269731367e-47
2.700462352420682237e+03 1.075747843657709356e-47
2.806470846309838635e+03 1.117722977966367690e-47
2.916640776023700710e+03 1.161344589077242343e-47
3.031135501567576284e+03 1.206619658542893282e-47
3.150124795755327796e+03 1.253635301726940381e-47
3.273785095948577236e+03 1.302463539359965468e-47
3.402299765678064432e+03 1.353231823355549760e-47
3.535859366535175923e+03 1.406038715493215051e-47
3.674661940736687939e+03 1.460940328071706178e-47
3.818913304781854094e+03 1.518129048353741251e-47
3.968827354637157896e+03 1.577577776302177744e-47
4.124626382901347824e+03 1.639269625634937632e-47
4.286541408420925109e+03 1.703311602174293111e-47
4.454812518844988517e+03 1.769861487288957898e-47
4.629689226627267999e+03 1.838985647332591069e-47
4.811430839003254732e+03 1.910821500709977911e-47
5.000306842491089810e+03 1.985471403878015628e-47
5.196597302486196895e+03 2.063058233048733897e-47
5.400593278542373810e+03 2.143612984539592106e-47
5.612597255954965476e+03 2.227296530251276416e-47
5.832923594286199659e+03 2.314212419969679724e-47
6.061898993497572519e+03 2.404620659284701887e-47
6.299862978380693676e+03 2.498735177097668265e-47
6.547168402004729614e+03 2.596570677908613418e-47
6.804181968927094204e+03 2.698272558733229537e-47
7.071284778942996127e+03 2.804060708481305748e-47
7.348872892180387680e+03 2.914005379893584497e-47
7.637357916378011396e+03 3.028262994739640839e-47
7.937167617217543011e+03 3.146956063364053448e-47
8.248746552614580651e+03 3.270124282141114193e-47
8.572556731909324299e+03 3.397988968102149724e-47
8.909078300934124854e+03 3.530886159940161643e-47
9.258810253973944782e+03 3.669166589849911380e-47
9.622271173675135287e+03 3.812943136876842345e-47
1.000000000000000000e+04 3.962732001713579781e-47
