# SDn neutrino floor for Xe 
#  Column 0 = Mass [GeV] 
#  Column 1 = Cross section [cm^2]
1.000000000000000056e-01 4.713334556775027301e-40
1.059560179277615893e-01 5.174831353235740861e-40
1.122667773510813566e-01 5.701722312361447183e-40
1.189534067370319470e-01 6.305887906342254784e-40
1.260382929679727537e-01 6.991569267476625458e-40
1.335451562929898806e-01 7.757962578211732766e-40
1.414991297434576023e-01 8.613069756302187256e-40
1.499268432786045602e-01 9.554572959237567653e-40
1.588565129428052836e-01 1.059298678370024050e-39
1.683180353330956669e-01 1.172025665140017168e-39
1.783430876931909326e-01 1.292596810630426091e-39
1.889652339691209604e-01 1.420945200458705989e-39
2.002200371815584523e-01 1.554979784703183103e-39
2.121451784910629856e-01 1.693107123386643204e-39
2.247805833548725263e-01 1.832649162618027919e-39
2.381685551976158166e-01 1.970927339494177892e-39
2.523539170434765944e-01 2.108235397191617249e-39
2.673841615839946395e-01 2.242594073589512553e-39
2.833096101839324144e-01 2.378196258972910196e-39
3.001835813575589040e-01 2.517182318523563779e-39
3.180625692794120107e-01 2.660864790745354681e-39
3.370064329271929005e-01 2.814066770686678107e-39
3.570785964900463627e-01 2.976101823008972405e-39
3.783462617131930217e-01 3.150119333692917479e-39
4.008806328898465443e-01 3.332324012526562241e-39
4.247571552536899553e-01 3.516317209689566931e-39
4.500557675700498916e-01 3.692286090642262889e-39
4.768611697714470465e-01 3.837532780143762847e-39
5.052631065335680960e-01 3.928215418869076797e-39
5.353566677410726005e-01 3.932642105932397047e-39
5.672426068491979168e-01 3.834525130132743103e-39
6.010276782070382851e-01 3.637632251049137646e-39
6.368249944718588074e-01 3.363695039853525409e-39
6.747544053110694495e-01 3.038212035565719199e-39
7.149428986597579083e-01 2.680317770848299634e-39
7.575250258771913936e-01 2.306249592246773960e-39
8.026433522257175879e-01 1.932716121891639987e-39
8.504489341802679014e-01 1.577266836341294814e-39
9.011018251665020573e-01 1.257915610231612412e-39
9.547716114208059102e-01 9.866377865292763484e-40
1.011637979766207618e+00 7.677760467644573213e-40
1.071891319205128035e+00 5.987359547792213037e-40
1.135733358343105737e+00 4.720437470476092405e-40
1.203377840777589913e+00 3.795255886407738885e-40
1.275051240713013456e+00 3.131190967930021922e-40
1.350993521198027292e+00 2.660315456332589873e-40
1.431458937523479191e+00 2.334054484783571606e-40
1.516716888470923230e+00 2.113599306448526294e-40
1.607052818261639260e+00 1.972147333126552833e-40
1.702769172225900407e+00 1.891176456436468733e-40
1.804186409392072754e+00 1.854741087557343548e-40
1.911644075385702690e+00 1.853998842964563739e-40
2.025501939230667681e+00 1.880184607485817526e-40
2.146141197858404848e+00 1.927631151503854891e-40
2.273965752357928860e+00 1.992977024203701532e-40
2.409403560239525621e+00 2.071890727252164485e-40
2.552908068239517991e+00 2.162994886054485240e-40
2.704959730463135870e+00 2.263936327114105913e-40
2.866067616948251739e+00 2.372469917871147022e-40
3.036771118035459072e+00 2.488186295962631535e-40
3.217641750250737065e+00 2.607564817228387286e-40
3.409285069746812891e+00 2.730121358229625473e-40
3.612342699709432114e+00 2.853928684479031958e-40
3.827494478516312970e+00 2.975089167394144790e-40
4.055460735840830111e+00 3.091822955670192326e-40
4.297004704320841917e+00 3.198528847121313324e-40
4.552935074866949705e+00 3.292475663943523292e-40
4.824108704165371186e+00 3.367455353911316556e-40
5.111433483440167791e+00 3.413573274312489555e-40
5.415871378079473608e+00 3.421495646534105927e-40
5.738441648302395670e+00 3.372126452226511554e-40
6.080224261649424200e+00 3.234651917615792258e-40
6.442363508721373755e+00 2.955105189261509101e-40
6.826071834272389616e+00 2.499495482490784499e-40
7.232633896483537050e+00 1.879090785246731028e-40
7.663410868007458632e+00 1.143761570280957742e-40
8.119844993184013759e+00 5.454136540735117832e-42
8.603464416684504457e+00 3.284033358632262390e-42
9.115888299750823265e+00 2.063959898713102570e-42
9.658832241158703980e+00 1.346394598339866975e-42
1.023411402105453760e+01 9.093790900805472765e-43
1.084365968689610860e+01 6.345377451697714853e-43
1.148951000187309823e+01 4.575915008491505147e-43
1.217382727739662052e+01 3.410578383273009426e-43
1.289890261253309411e+01 2.625781243133958606e-43
1.366716356462007376e+01 2.090623861268626303e-43
1.448118227674534531e+01 1.720754292225735277e-43
1.534368408930013139e+01 1.461477538484895569e-43
1.625755666443794922e+01 1.278745789147200448e-43
1.722585965398787522e+01 1.148804416208330449e-43
1.825183494319044186e+01 1.055728089795359037e-43
1.933891750455232028e+01 9.893119087076142658e-44
2.049074689815848060e+01 9.422120680072388882e-44
2.171117945694505380e+01 9.096174894166488946e-44
2.300430119772919113e+01 8.883004779643349675e-44
2.437444150122221842e+01 8.755159788841765423e-44
2.582618760682677461e+01 8.698075174446333734e-44
2.736439997074672092e+01 8.699251554839719037e-44
2.899422853882878215e+01 8.748554682731752545e-44
3.072112998861759081e+01 8.839876971193134704e-44
3.255088599835060137e+01 8.966703593342579775e-44
3.448962260405759395e+01 9.125414906467250382e-44
3.654383070957258184e+01 9.310854217397773987e-44
3.872038781812557318e+01 9.523183353035348835e-44
4.102658105827194390e+01 9.755014873275245458e-44
4.347013158125026422e+01 1.000860328729343960e-43
4.605922041145108636e+01 1.027856323995412587e-43
4.880251583654433745e+01 1.055981015569406524e-43
5.170920242896760755e+01 1.085076629361027552e-43
5.478901179593945159e+01 1.115114291402966524e-43
5.805225516094901650e+01 1.145381847328957282e-43
6.150985788580504021e+01 1.175492567322087482e-43
6.517339604882427295e+01 1.205996194862001384e-43
6.905513520162330110e+01 1.236697395956966142e-43
7.316807143427199378e+01 1.267225228237629819e-43
7.752597488629464806e+01 1.392487180000029015e-38
8.214343584919430441e+01 1.441689700265605831e-38
8.703591361485165123e+01 1.519281014562364532e-38
9.221978823334330855e+01 1.576049907493731659e-38
9.771241535346501905e+01 1.609439502587318895e-38
1.035321843295662632e+02 1.672573303114962287e-38
1.096985797892384085e+02 1.479104125198953739e-38
1.162322468679852960e+02 1.367294408442787511e-38
1.231550603292826196e+02 1.714283888306094960e-38
1.304901978014403028e+02 1.947834847292630886e-38
1.382622173764656281e+02 1.644404881661123878e-38
1.464971398307286279e+02 1.843523956665421125e-38
1.552225357427047925e+02 2.138392100694163785e-38
1.644676177994664386e+02 1.723222697344595643e-38
1.742633386009650849e+02 1.799634451427317419e-38
1.846424942895544348e+02 1.973478247867955539e-38
1.956398343517064689e+02 2.036671248419409989e-38
2.072921779595371845e+02 2.085122858146412451e-38
2.196385372416546886e+02 2.093929256184608268e-38
2.327202478960409735e+02 2.317416256937238645e-38
2.465811075822603868e+02 3.023279529879594912e-38
2.612675225563328922e+02 2.856522521401083735e-38
2.768286630392066741e+02 2.967423766978449296e-38
2.933166278390045250e+02 2.711073183843772058e-38
3.107866187782013867e+02 3.011245373848668415e-38
3.292971255097151584e+02 3.318910742460456209e-38
3.489101213406773923e+02 3.415314713853774636e-38
3.696912707195028247e+02 3.605130738537186647e-38
3.917101490809260440e+02 3.812002620174933627e-38
4.150404757850476472e+02 3.475057267750190666e-38
4.397603609302720997e+02 4.617129221191401868e-38
4.659525668664682030e+02 3.880397927095488884e-38
4.937047852839003781e+02 4.881787121294016766e-38
5.231099308056263908e+02 4.333957813254600804e-38
5.542664520663107623e+02 5.451751260793143532e-38
5.872786613189482523e+02 4.841441886211662197e-38
6.222570836730230894e+02 6.091245249421513491e-38
6.593188271333548300e+02 5.409229708328178145e-38
6.985879746785249154e+02 7.147870516327459562e-38
7.401959996915644524e+02 6.043621774642948743e-38
7.842822061337682271e+02 7.020386415187095436e-38
8.309941949353395785e+02 6.713850369464946155e-38
8.804883581643464368e+02 7.619420928160855014e-38
9.329304026284686415e+02 7.173297967237118362e-38
9.884959046625585870e+02 8.005040257024063137e-38
1.047370897959450758e+03 7.655743051458025248e-38
1.109752496412072105e+03 8.098351489240115423e-38
1.175849554052158055e+03 8.497750372690850005e-38
1.245883364295008050e+03 8.453253454146949633e-38
1.320088400831419449e+03 7.658117040215488639e-38
1.398713102647238657e+03 8.052456444032186927e-38
1.482020705798860035e+03 1.071299433186909646e-42
1.570290124729377567e+03 9.281950615673037442e-38
1.663816886076130686e+03 1.195617412841876100e-42
1.762914118095947970e+03 1.263585222451883027e-42
1.867913599020784659e+03 8.824096849186049085e-38
1.979166867853557278e+03 1.411528162086636981e-42
2.097046401323234932e+03 1.492025989711296953e-42
2.221946860939523958e+03 1.577656459168147702e-42
2.354286414322420114e+03 1.668031050146240856e-42
2.494508135230316384e+03 1.764177392840886071e-42
2.643081486974108429e+03 1.865663359954480946e-42
2.800503894183631019e+03 1.973671282385225079e-42
2.967302408188872505e+03 2.087587979859991848e-42
3.144035471591500027e+03 2.208857610237925075e-42
3.331294787934677061e+03 2.336925710254465675e-42
3.529707302730650099e+03 2.472986319512073953e-42
3.739937302478801485e+03 2.616945932286469680e-42
3.962688638701478339e+03 2.769402208906704208e-42
4.198707084443914027e+03 2.931028259454099122e-42
4.448782831127585268e+03 3.102347367952200627e-42
4.713753134116728688e+03 3.283718890902130180e-42
4.994505115855139593e+03 3.475753852112286156e-42
5.291978735958447032e+03 3.679909200162430361e-42
5.607169938205458493e+03 3.895322299310201286e-42
5.941133984965039417e+03 4.124598280062290115e-42
6.294988990221887434e+03 4.366763448580675358e-42
6.669919663030128504e+03 4.623588767835256881e-42
7.067181273927491020e+03 4.895464287990657225e-42
7.488103857590030202e+03 5.184190830192189187e-42
7.934096665797492278e+03 5.489417967612384359e-42
8.406652885618334039e+03 5.812647895633601177e-42
8.907354638610438997e+03 6.156204292075829200e-42
9.437878277775391325e+03 6.518983669825858321e-42
1.000000000000000000e+04 6.904742515054427884e-42
