# SDp neutrino floor for Xe 
#  Column 0 = Mass [GeV] 
#  Column 1 = Cross section [cm^2]
1.000000000000000056e-01 8.718944194551353647e-38
1.059560179277615893e-01 9.574285312943463327e-38
1.122667773510813566e-01 1.055276705812079543e-37
1.189534067370319470e-01 1.167222512881534905e-37
1.260382929679727537e-01 1.293593643304315624e-37
1.335451562929898806e-01 1.435465068436116578e-37
1.414991297434576023e-01 1.594986648741139665e-37
1.499268432786045602e-01 1.768894260495928992e-37
1.588565129428052836e-01 1.961430466184964697e-37
1.683180353330956669e-01 2.169917349636996257e-37
1.783430876931909326e-01 2.391263113638236097e-37
1.889652339691209604e-01 2.629860939245294243e-37
2.002200371815584523e-01 2.878424196465575149e-37
2.121451784910629856e-01 3.131860026807097877e-37
2.247805833548725263e-01 3.390547692160296381e-37
2.381685551976158166e-01 3.646174335372245473e-37
2.523539170434765944e-01 3.901332112933063408e-37
2.673841615839946395e-01 4.147205988460235037e-37
2.833096101839324144e-01 4.399230432924567065e-37
3.001835813575589040e-01 4.655315680534775703e-37
3.180625692794120107e-01 4.921606234770580172e-37
3.370064329271929005e-01 5.205098698719244292e-37
3.570785964900463627e-01 5.507105602606315642e-37
3.783462617131930217e-01 5.828597166667907493e-37
4.008806328898465443e-01 6.166334501801183381e-37
4.247571552536899553e-01 6.503125436204093501e-37
4.500557675700498916e-01 6.831906650755585331e-37
4.768611697714470465e-01 7.100711772375379200e-37
5.052631065335680960e-01 7.260752769643703024e-37
5.353566677410726005e-01 7.268596990936301433e-37
5.672426068491979168e-01 7.083907753670377822e-37
6.010276782070382851e-01 6.718551768640820240e-37
6.368249944718588074e-01 6.210483792019418940e-37
6.747544053110694495e-01 5.607448391419259565e-37
7.149428986597579083e-01 4.948032797630088509e-37
7.575250258771913936e-01 4.256548268793210138e-37
8.026433522257175879e-01 3.564632875830794280e-37
8.504489341802679014e-01 2.907076738173051520e-37
9.011018251665020573e-01 2.318185663306974076e-37
9.547716114208059102e-01 1.818429781456081440e-37
1.011637979766207618e+00 1.415109803608421560e-37
1.071891319205128035e+00 1.103490292700913002e-37
1.135733358343105737e+00 8.704622565770415165e-38
1.203377840777589913e+00 6.998211883175848396e-38
1.275051240713013456e+00 5.778509900985276250e-38
1.350993521198027292e+00 4.910609788094911974e-38
1.431458937523479191e+00 4.310419965609871711e-38
1.516716888470923230e+00 3.905608717528585386e-38
1.607052818261639260e+00 3.644812803391275646e-38
1.702769172225900407e+00 3.497567420625080148e-38
1.804186409392072754e+00 3.431021515463394234e-38
1.911644075385702690e+00 3.429902579612599702e-38
2.025501939230667681e+00 3.478980970340927935e-38
2.146141197858404848e+00 3.567020108776958809e-38
2.273965752357928860e+00 3.688666663850387606e-38
2.409403560239525621e+00 3.834672400236407013e-38
2.552908068239517991e+00 4.003767943479359650e-38
2.704959730463135870e+00 4.190567007984865468e-38
2.866067616948251739e+00 4.392387939126488174e-38
3.036771118035459072e+00 4.606902408962362744e-38
3.217641750250737065e+00 4.827490940422543338e-38
3.409285069746812891e+00 5.054470808794147382e-38
3.612342699709432114e+00 5.282679865869278786e-38
3.827494478516312970e+00 5.505673400027328200e-38
4.055460735840830111e+00 5.721602910130874109e-38
4.297004704320841917e+00 5.920035030276217069e-38
4.552935074866949705e+00 6.093684513834702366e-38
4.824108704165371186e+00 6.232196969590262221e-38
5.111433483440167791e+00 6.316618650969926273e-38
5.415871378079473608e+00 6.330522450480108766e-38
5.738441648302395670e+00 6.237224725490222440e-38
6.080224261649424200e+00 5.978442933834715156e-38
6.442363508721373755e+00 5.456966858473065179e-38
6.826071834272389616e+00 4.609982902383250765e-38
7.232633896483537050e+00 3.458546736012762370e-38
7.663410868007458632e+00 2.095713245262041840e-38
8.119844993184013759e+00 1.001699193036264614e-39
8.603464416684504457e+00 6.033553687714093990e-40
9.115888299750823265e+00 3.793786233172057238e-40
9.658832241158703980e+00 2.476747148558326140e-40
1.023411402105453760e+01 1.673273911270029994e-40
1.084365968689610860e+01 1.168034881542886936e-40
1.148951000187309823e+01 8.426964955418637954e-41
1.217382727739662052e+01 6.283133762810912963e-41
1.289890261253309411e+01 4.840824853221032421e-41
1.366716356462007376e+01 3.855073045107351635e-41
1.448118227674534531e+01 3.174170515103242073e-41
1.534368408930013139e+01 2.697082588585147990e-41
1.625755666443794922e+01 2.360648621664771312e-41
1.722585965398787522e+01 2.122106817547281272e-41
1.825183494319044186e+01 1.950219253340624426e-41
1.933891750455232028e+01 1.828030058945008821e-41
2.049074689815848060e+01 1.741463813199847436e-41
2.171117945694505380e+01 1.681391732162955068e-41
2.300430119772919113e+01 1.642270932764296040e-41
2.437444150122221842e+01 1.618748693431562396e-41
2.582618760682677461e+01 1.608437118533350441e-41
2.736439997074672092e+01 1.608692862835623902e-41
2.899422853882878215e+01 1.618125625582120018e-41
3.072112998861759081e+01 1.634641794312691518e-41
3.255088599835060137e+01 1.658318980184847355e-41
3.448962260405759395e+01 1.687417039062360631e-41
3.654383070957258184e+01 1.722238335871895944e-41
3.872038781812557318e+01 1.761151057399392996e-41
4.102658105827194390e+01 1.804203714378412051e-41
4.347013158125026422e+01 1.851299094436107853e-41
4.605922041145108636e+01 1.900622835322512120e-41
4.880251583654433745e+01 1.952958054937239963e-41
5.170920242896760755e+01 2.007228029450616309e-41
5.478901179593945159e+01 2.062323385188768877e-41
5.805225516094901650e+01 2.117675721844373697e-41
6.150985788580504021e+01 2.174065545205861838e-41
6.517339604882427295e+01 2.230436641830387325e-41
6.905513520162330110e+01 2.286085577182650694e-41
7.316807143427199378e+01 2.343116558483492844e-41
7.752597488629464806e+01 2.400013369117200870e-41
8.214343584919430441e+01 2.457606721363920599e-41
8.703591361485165123e+01 2.516513995857667782e-41
9.221978823334330855e+01 2.577437224473821947e-41
9.771241535346501905e+01 2.639694259632043037e-41
1.035321843295662632e+02 2.704922669983840502e-41
1.096985797892384085e+02 2.773069879503950404e-41
1.162322468679852960e+02 2.844439273394181057e-41
1.231550603292826196e+02 2.920791232828356862e-41
1.304901978014403028e+02 3.001745429785487774e-41
1.382622173764656281e+02 3.087590626902693031e-41
1.464971398307286279e+02 3.178669125412432302e-41
1.552225357427047925e+02 3.276169849810589782e-41
1.644676177994664386e+02 3.379803817548313876e-41
1.742633386009650849e+02 3.491436873755114521e-41
1.846424942895544348e+02 3.610088737220412141e-41
1.956398343517064689e+02 3.736108037439891213e-41
2.072921779595371845e+02 3.871855827759689326e-41
2.196385372416546886e+02 4.015711570372793772e-41
2.327202478960409735e+02 4.169793207108801269e-41
2.465811075822603868e+02 4.333883684933855887e-41
2.612675225563328922e+02 4.508358586040142754e-41
2.768286630392066741e+02 4.695641065689502247e-41
2.933166278390045250e+02 4.893574036196167952e-41
3.107866187782013867e+02 5.103955542033695870e-41
3.292971255097151584e+02 5.329656072664792348e-41
3.489101213406773923e+02 5.569610776116494128e-41
3.696912707195028247e+02 5.823900761401228429e-41
3.917101490809260440e+02 6.093368641461081745e-41
4.150404757850476472e+02 6.380823624616155476e-41
4.397603609302720997e+02 6.687447899086712594e-41
4.659525668664682030e+02 7.012223693302112649e-41
4.937047852839003781e+02 7.356062287423549654e-41
5.231099308056263908e+02 7.721668928301964117e-41
5.542664520663107623e+02 8.110122372545185407e-41
5.872786613189482523e+02 8.520894025334330859e-41
6.222570836730230894e+02 8.957693801382282443e-41
6.593188271333548300e+02 9.420715379139301616e-41
6.985879746785249154e+02 9.911549883284560007e-41
7.401959996915644524e+02 1.043391342541001375e-40
7.842822061337682271e+02 1.098696514206125352e-40
8.309941949353395785e+02 1.157304463145645083e-40
8.804883581643464368e+02 1.219553596861466398e-40
9.329304026284686415e+02 1.285441421332972098e-40
9.884959046625585870e+02 1.355340211382249202e-40
1.047370897959450758e+03 1.429499367022566049e-40
1.109752496412072105e+03 1.507953113105829912e-40
1.175849554052158055e+03 1.591349475251633788e-40
1.245883364295008050e+03 1.679558342272368918e-40
1.320088400831419449e+03 1.773247216346089043e-40
1.398713102647238657e+03 1.872340865494550415e-40
1.482020705798860035e+03 1.977550055450659462e-40
1.570290124729377567e+03 2.088896969809594772e-40
1.663816886076130686e+03 2.206993559067167900e-40
1.762914118095947970e+03 2.332048645453158259e-40
1.867913599020784659e+03 2.464648307001063355e-40
1.979166867853557278e+03 2.604813406273530961e-40
2.097046401323234932e+03 2.754124988771159887e-40
2.221946860939523958e+03 2.911172301546699095e-40
2.354286414322420114e+03 3.078435724794504087e-40
2.494508135230316384e+03 3.255156548578796737e-40
2.643081486974108429e+03 3.442940863855260545e-40
2.800503894183631019e+03 3.642272176190180122e-40
2.967302408188872505e+03 3.853258094026130411e-40
3.144035471591500027e+03 4.076546147403514049e-40
3.331294787934677061e+03 4.313477695650453718e-40
3.529707302730650099e+03 4.563725552015793887e-40
3.739937302478801485e+03 4.829351248928077507e-40
3.962688638701478339e+03 5.111228059318750657e-40
4.198707084443914027e+03 5.408476252786016703e-40
4.448782831127585268e+03 5.724460255340975508e-40
4.713753134116728688e+03 6.059147722027933436e-40
4.994505115855139593e+03 6.414793650593424663e-40
5.291978735958447032e+03 6.790640698779521328e-40
5.607169938205458493e+03 7.190130113106855401e-40
5.941133984965039417e+03 7.610966195488459085e-40
6.294988990221887434e+03 8.058742490637869762e-40
6.669919663030128504e+03 8.532619242207840334e-40
7.067181273927491020e+03 9.033668916061291921e-40
7.488103857590030202e+03 9.565169989205022990e-40
7.934096665797492278e+03 1.012980753312810784e-39
8.406652885618334039e+03 1.072798797702521682e-39
8.907354638610438997e+03 1.136046159375160425e-39
9.437878277775391325e+03 1.203275260201924704e-39
1.000000000000000000e+04 1.274060680966107772e-39
